# Absorption coefficients
# HITRAN. Molecule CO2. Isotopologue(s): 636.
# Wavenumber range: 2200-2500 cm-1, T: 296 K, P: 1 atm, step: 0.01002 cm-1, Profile: Voigt, Wing: 50 HW, Scut: 1e-28 cm/mol
# KNa, Ka and thier units definition in Eqs(2)-(3) of  http://hitran.iao.ru/home.sim-theory.sp-functions.
# WN,cm-1           KNa,cm-1       Ka,cm**2/molecule (FORMAT F12.6,3X,E17.10,3X,E17.10)

 2200.001220    3.9741604943E-05    1.6028900571E-24
 2200.011240    4.2480346678E-05    1.7133511696E-24
 2200.021260    4.5731631931E-05    1.8444845955E-24
 2200.031280    4.9742580751E-05    2.0062573772E-24
 2200.041300    5.4752530590E-05    2.2083226636E-24
 2200.051320    6.0945273747E-05    2.4580933119E-24
 2200.061340    6.8382959330E-05    2.7580759695E-24
 2200.071360    7.6898379312E-05    3.1015266691E-24
 2200.081380    8.5943006534E-05    3.4663217765E-24
 2200.091400    9.4459425206E-05    3.8098127561E-24
 2200.101420    1.0094321352E-04    4.0713220695E-24
 2200.111440    1.0388809189E-04    4.1900972491E-24
 2200.121460    1.0250340248E-04    4.1342488530E-24
 2200.131480    9.7177996530E-05    3.9194603396E-24
 2200.141500    8.9244334697E-05    3.5994735729E-24
 2200.151520    8.0276022041E-05    3.2377564453E-24
 2200.161540    7.1509280214E-05    2.8841692329E-24
 2200.171560    6.3655370365E-05    2.5673990868E-24
 2200.181580    5.6985256212E-05    2.2983747313E-24
 2200.191600    5.1485666610E-05    2.0765609041E-24
 2200.201620    4.6989360690E-05    1.8952123133E-24
 2200.211640    4.3264736540E-05    1.7449878062E-24
 2200.221660    4.0082973326E-05    1.6166583986E-24
 2200.231680    3.7271059483E-05    1.5032460503E-24
 2200.241700    3.4739606076E-05    1.4011454557E-24
 2200.251720    3.2473905656E-05    1.3097634221E-24
 2200.261740    3.0499328253E-05    1.2301231939E-24
 2200.271760    2.8846955401E-05    1.1634783763E-24
 2200.281780    2.7535742363E-05    1.1105934879E-24
 2200.291800    2.6570400673E-05    1.0716585582E-24
 2200.301820    2.5944876411E-05    1.0464294155E-24
 2200.311840    2.5656852262E-05    1.0348125961E-24
 2200.321860    2.5700994791E-05    1.0365929878E-24
 2200.331880    2.6080213794E-05    1.0518879506E-24
 2200.341900    2.6805585089E-05    1.0811442033E-24
 2200.351920    2.7896760944E-05    1.1251543768E-24
 2200.361940    2.9379821092E-05    1.1849703396E-24
 2200.371960    3.1281157506E-05    1.2616565539E-24
 2200.381980    3.3613394272E-05    1.3557221844E-24
 2200.392000    3.6355249159E-05    1.4663088590E-24
 2200.402020    3.9418446228E-05    1.5898561625E-24
 2200.412040    4.2620881809E-05    1.7190193444E-24
 2200.422060    4.5739507737E-05    1.8448022487E-24
 2200.432080    4.8513076517E-05    1.9566680334E-24
 2200.442100    5.0812161318E-05    2.0493965524E-24
 2200.452120    5.2729095501E-05    2.1267118683E-24
 2200.462140    5.4563589572E-05    2.2007021440E-24
 2200.472160    5.6716576104E-05    2.2875381113E-24
 2200.482180    5.9557102883E-05    2.4021044992E-24
 2200.492200    6.3334241113E-05    2.5544470461E-24
 2200.502220    6.8085216988E-05    2.7460671883E-24
 2200.512240    7.3606150834E-05    2.9687418885E-24
 2200.522260    7.9386860230E-05    3.2018940631E-24
 2200.532280    8.4549578734E-05    3.4101209369E-24
 2200.542300    8.8167456790E-05    3.5560400756E-24
 2200.552320    8.9584777250E-05    3.6132045731E-24
 2200.562340    8.8726898249E-05    3.5786039141E-24
 2200.572360    8.6098125747E-05    3.4725781682E-24
 2200.582380    8.2382707179E-05    3.3227249479E-24
 2200.592400    7.8066620647E-05    3.1486451089E-24
 2200.602420    7.3307693114E-05    2.9567042541E-24
 2200.612440    6.8086597604E-05    2.7461228724E-24
 2200.622460    6.2441405643E-05    2.5184364949E-24
 2200.632480    5.6566782515E-05    2.2814965169E-24
 2200.642500    5.0772955715E-05    2.0478152808E-24
 2200.652520    4.5345838359E-05    1.8289244619E-24
 2200.662540    4.0473222375E-05    1.6323982339E-24
 2200.672560    3.6233167333E-05    1.4613849576E-24
 2200.682580    3.2623150434E-05    1.3157828814E-24
 2200.692600    2.9597556706E-05    1.1937522258E-24
 2200.702620    2.7091229868E-05    1.0926650560E-24
 2200.712640    2.5036522592E-05    1.0097929660E-24
 2200.722660    2.3369503877E-05    9.4255743968E-25
 2200.732680    2.2031405608E-05    8.8858819473E-25
 2200.742700    2.0967377009E-05    8.4567294598E-25
 2200.752720    2.0124458259E-05    8.1167567577E-25
 2200.762740    1.9451119199E-05    7.8451802858E-25
 2200.772760    1.8896023181E-05    7.6212945398E-25
 2200.782780    1.8415618940E-05    7.4275340758E-25
 2200.792800    1.7971689593E-05    7.2484849563E-25
 2200.802820    1.7542965736E-05    7.0755686367E-25
 2200.812840    1.7100338242E-05    6.8970445908E-25
 2200.822860    1.6685008725E-05    6.7295305827E-25
 2200.832880    1.6281441088E-05    6.5667604698E-25
 2200.842900    1.5895469444E-05    6.4110873128E-25
 2200.852920    1.5534012870E-05    6.2653017692E-25
 2200.862940    1.5214959563E-05    6.1366186490E-25
 2200.872960    1.4943237282E-05    6.0270254545E-25
 2200.882980    1.4743431647E-05    5.9464382548E-25
 2200.893000    1.4635579435E-05    5.9029384421E-25
 2200.903020    1.4639456116E-05    5.9045020157E-25
 2200.913040    1.4774416345E-05    5.9589352501E-25
 2200.923060    1.5060610016E-05    6.0743651605E-25
 2200.933080    1.5571622244E-05    6.2804706814E-25
 2200.943100    1.6223096110E-05    6.5432283090E-25
 2200.953120    1.7086807603E-05    6.8915873059E-25
 2200.963140    1.8175112520E-05    7.3305311111E-25
 2200.973160    1.9484228431E-05    7.8585341651E-25
 2200.983180    2.0979607786E-05    8.4616624743E-25
 2200.993200    2.2577635036E-05    9.1061915502E-25
 2201.003220    2.4136666702E-05    9.7349926164E-25
 2201.013240    2.5472020520E-05    1.0273578152E-24
 2201.023260    2.6407533447E-05    1.0650896675E-24
 2201.033280    2.6838948553E-05    1.0824898451E-24
 2201.043300    2.6758728804E-05    1.0792543583E-24
 2201.053320    2.6222553103E-05    1.0576288929E-24
 2201.063340    2.5299699220E-05    1.0204076153E-24
 2201.073360    2.4057211320E-05    9.7029460390E-25
 2201.083380    2.2576037944E-05    9.1055473983E-25
 2201.093400    2.0961522077E-05    8.4543680021E-25
 2201.103420    1.9328830321E-05    7.7958577620E-25
 2201.113440    1.7777245428E-05    7.1700601877E-25
 2201.123460    1.6373800279E-05    6.6040115144E-25
 2201.133480    1.5152172827E-05    6.1112950024E-25
 2201.143500    1.4120964006E-05    5.6953796491E-25
 2201.153520    1.3273798717E-05    5.3536941986E-25
 2201.163540    1.2597065049E-05    5.0807485871E-25
 2201.173560    1.2077085374E-05    4.8710262436E-25
 2201.183580    1.1700138686E-05    4.7189931039E-25
 2201.193600    1.1455754166E-05    4.6204259932E-25
 2201.203620    1.1336747774E-05    4.5724273875E-25
 2201.213640    1.1338722983E-05    4.5732240444E-25
 2201.223660    1.1459401797E-05    4.6218971850E-25
 2201.233680    1.1696845133E-05    4.7176647217E-25
 2201.243700    1.2046683419E-05    4.8587642851E-25
 2201.253720    1.2498064078E-05    5.0408187269E-25
 2201.263740    1.3027930415E-05    5.2545286372E-25
 2201.273760    1.3602153995E-05    5.4861290641E-25
 2201.283780    1.4172463245E-05    5.7161507323E-25
 2201.293800    1.4693373305E-05    5.9262483258E-25
 2201.303820    1.5140507767E-05    6.1065901576E-25
 2201.313840    1.5523873414E-05    6.2612122432E-25
 2201.323860    1.5883027289E-05    6.4060690440E-25
 2201.333880    1.6264913172E-05    6.5600942994E-25
 2201.343900    1.6691342068E-05    6.7320849973E-25
 2201.353920    1.7146686969E-05    6.9157383286E-25
 2201.363940    1.7568211779E-05    7.0857510716E-25
 2201.373960    1.7862674355E-05    7.2045160626E-25
 2201.383980    1.7941743462E-05    7.2364068447E-25
 2201.394000    1.7761245418E-05    7.1636069360E-25
 2201.404020    1.7351520990E-05    6.9983536170E-25
 2201.414040    1.6788663020E-05    6.7713372586E-25
 2201.424060    1.6165844887E-05    6.5201372895E-25
 2201.434080    1.5557181670E-05    6.2746463940E-25
 2201.444100    1.5003333938E-05    6.0512641166E-25
 2201.454120    1.4500078753E-05    5.8482872278E-25
 2201.464140    1.4069292338E-05    5.6745390207E-25
 2201.474160    1.3685894798E-05    5.5199040718E-25
 2201.484180    1.3365954505E-05    5.3908632051E-25
 2201.494200    1.3075214986E-05    5.2735998270E-25
 2201.504220    1.2841524434E-05    5.1793458927E-25
 2201.514240    1.2686520559E-05    5.1168284954E-25
 2201.524260    1.2617113186E-05    5.0888345610E-25
 2201.534280    1.2641628807E-05    5.0987223968E-25
 2201.544300    1.2772927824E-05    5.1516789615E-25
 2201.554320    1.2999592919E-05    5.2430993328E-25
 2201.564340    1.3337881934E-05    5.3795407521E-25
 2201.574360    1.3793399846E-05    5.5632638637E-25
 2201.584380    1.4399529794E-05    5.8077330210E-25
 2201.594400    1.5119434728E-05    6.0980908116E-25
 2201.604420    1.5995702511E-05    6.4515141116E-25
 2201.614440    1.7051145666E-05    6.8772038495E-25
 2201.624460    1.8314825264E-05    7.3868811677E-25
 2201.634480    1.9822517939E-05    7.9949757832E-25
 2201.644500    2.1616416803E-05    8.7185053579E-25
 2201.654520    2.3742967323E-05    9.5762026478E-25
 2201.664540    2.6247439727E-05    1.0586326401E-24
 2201.674560    2.9162451562E-05    1.1762032186E-24
 2201.684580    3.2486648667E-05    1.3102773834E-24
 2201.694600    3.6151044961E-05    1.4580727327E-24
 2201.704620    3.9976733444E-05    1.6123734470E-24
 2201.714640    4.3644018594E-05    1.7602853120E-24
 2201.724660    4.6718030611E-05    1.8842688125E-24
 2201.734680    4.8762931429E-05    1.9667453807E-24
 2201.744700    4.9521830358E-05    1.9973538966E-24
 2201.754720    4.9078312843E-05    1.9794655950E-24
 2201.764740    4.7783784236E-05    1.9272536364E-24
 2201.774760    4.6119547332E-05    1.8601303083E-24
 2201.784780    4.4523131616E-05    1.7957423984E-24
 2201.794800    4.3306967642E-05    1.7466911046E-24
 2201.804820    4.2661290974E-05    1.7206491591E-24
 2201.814840    4.2809129412E-05    1.7266118967E-24
 2201.824860    4.3576913655E-05    1.7575787821E-24
 2201.834880    4.5128970635E-05    1.8201775802E-24
 2201.844900    4.7519450765E-05    1.9165923283E-24
 2201.854920    5.0818173161E-05    2.0496390268E-24
 2201.864940    5.5106474494E-05    2.2225982110E-24
 2201.874960    6.0429819545E-05    2.4373036026E-24
 2201.884980    6.6749335807E-05    2.6921873647E-24
 2201.895000    7.3818651809E-05    2.9773126471E-24
 2201.905020    8.1059444803E-05    3.2693540760E-24
 2201.915040    8.7493124617E-05    3.5288423735E-24
 2201.925060    9.1946792111E-05    3.7084712373E-24
 2201.935080    9.3183162133E-05    3.7583374976E-24
 2201.945100    9.0873939755E-05    3.6652001018E-24
 2201.955120    8.5535487467E-05    3.4498853930E-24
 2201.965140    7.8307965398E-05    3.1583792176E-24
 2201.975160    7.0414556561E-05    2.8400159668E-24
 2201.985180    6.2777943015E-05    2.5320099882E-24
 2201.995200    5.5926271488E-05    2.2556629161E-24
 2202.005220    5.0074449866E-05    2.0196425866E-24
 2202.015240    4.5247845375E-05    1.8249721309E-24
 2202.025260    4.1380135547E-05    1.6689765782E-24
 2202.035280    3.8373107053E-05    1.5476947104E-24
 2202.045300    3.6126782492E-05    1.4570941595E-24
 2202.055320    3.4550880172E-05    1.3935336122E-24
 2202.065340    3.3561491004E-05    1.3536287804E-24
 2202.075360    3.3086776430E-05    1.3344822142E-24
 2202.085380    3.3035273396E-05    1.3324049528E-24
 2202.095400    3.3293582030E-05    1.3428232623E-24
 2202.105420    3.3709105230E-05    1.3595824749E-24
 2202.115440    3.4086799905E-05    1.3748159574E-24
 2202.125460    3.4223346124E-05    1.3803232482E-24
 2202.135480    3.3913783466E-05    1.3678377205E-24
 2202.145500    3.3090320246E-05    1.3346251462E-24
 2202.155520    3.1806276618E-05    1.2828360761E-24
 2202.165540    3.0218078196E-05    1.2187795927E-24
 2202.175560    2.8516140757E-05    1.1501356966E-24
 2202.185580    2.6863897651E-05    1.0834961120E-24
 2202.195600    2.5371119794E-05    1.0232882068E-24
 2202.205620    2.4095258732E-05    9.7182916239E-25
 2202.215640    2.3056688056E-05    9.2994070289E-25
 2202.225660    2.2253967125E-05    8.9756472306E-25
 2202.235680    2.1675648750E-05    8.7423952586E-25
 2202.245700    2.1307558286E-05    8.5939340817E-25
 2202.255720    2.1136338988E-05    8.5248765507E-25
 2202.265740    2.1153836910E-05    8.5319339521E-25
 2202.275760    2.1354727785E-05    8.6129588595E-25
 2202.285780    2.1740576112E-05    8.7685822793E-25
 2202.295800    2.2312846226E-05    8.9993948187E-25
 2202.305820    2.3080312789E-05    9.3089355442E-25
 2202.315840    2.4051089679E-05    9.7004770099E-25
 2202.325860    2.5227564366E-05    1.0174982149E-24
 2202.335880    2.6599845710E-05    1.0728461588E-24
 2202.345900    2.8135022085E-05    1.1347641149E-24
 2202.355920    2.9767666759E-05    1.2006132399E-24
 2202.365940    3.1399540931E-05    1.2664312885E-24
 2202.375960    3.2917998794E-05    1.3276749402E-24
 2202.385980    3.4237594920E-05    1.3808979419E-24
 2202.396000    3.5345259532E-05    1.4255731531E-24
 2202.406020    3.6317617900E-05    1.4647910851E-24
 2202.416040    3.7296609854E-05    1.5042765682E-24
 2202.426060    3.8444062151E-05    1.5505565279E-24
 2202.436080    3.9900765142E-05    1.6093094330E-24
 2202.446100    4.1781313078E-05    1.6851571898E-24
 2202.456120    4.4173468336E-05    1.7816395006E-24
 2202.466140    4.7153012199E-05    1.9018128363E-24
 2202.476160    5.0799543066E-05    2.0488876230E-24
 2202.486180    5.5214150396E-05    2.2269410812E-24
 2202.496200    6.0535329559E-05    2.4415591165E-24
 2202.506220    6.6950071825E-05    2.7002836097E-24
 2202.516240    7.4695077796E-05    3.0126613579E-24
 2202.526260    8.4036355572E-05    3.3894212117E-24
 2202.536280    9.5256940136E-05    3.8419787633E-24
 2202.546300    1.0852908955E-04    4.3772816622E-24
 2202.556320    1.2384466115E-04    4.9950014919E-24
 2202.566340    1.4075822198E-04    5.6771726957E-24
 2202.576360    1.5812829565E-04    6.3777563388E-24
 2202.586380    1.7395173556E-04    7.0159599176E-24
 2202.596400    1.8561705694E-04    7.4864549489E-24
 2202.606420    1.9080014984E-04    7.6955035788E-24
 2202.616440    1.8864439087E-04    7.6085557913E-24
 2202.626460    1.8028522227E-04    7.2714071471E-24
 2202.636480    1.6820838121E-04    6.7843143765E-24
 2202.646500    1.5504486782E-04    6.2533930722E-24
 2202.656520    1.4270924452E-04    5.7558628904E-24
 2202.666540    1.3215000257E-04    5.3299791355E-24
 2202.676560    1.2352632350E-04    4.9821620445E-24
 2202.686580    1.1645113876E-04    4.6968000595E-24
 2202.696600    1.1033542055E-04    4.4501360427E-24
 2202.706620    1.0454749938E-04    4.2166929969E-24
 2202.716640    9.8844353015E-05    3.9866691563E-24
 2202.726660    9.3309012889E-05    3.7634134105E-24
 2202.736680    8.8253489704E-05    3.5595100236E-24
 2202.746700    8.4028168793E-05    3.3890910160E-24
 2202.756720    8.0898294634E-05    3.2628544391E-24
 2202.766740    7.9019069308E-05    3.1870600268E-24
 2202.776760    7.8461100803E-05    3.1645555967E-24
 2202.786780    7.9247658660E-05    3.1962796746E-24
 2202.796800    8.1389600530E-05    3.2826701797E-24
 2202.806820    8.4871159447E-05    3.4230911863E-24
 2202.816840    8.9643074927E-05    3.6155558814E-24
 2202.826860    9.5580688776E-05    3.8550364513E-24
 2202.836880    1.0243843565E-04    4.1316285590E-24
 2202.846900    1.0983072390E-04    4.4297802154E-24
 2202.856920    1.1728737799E-04    4.7305279260E-24
 2202.866940    1.2437972718E-04    5.0165822011E-24
 2202.876960    1.3093601419E-04    5.2810155896E-24
 2202.886980    1.3689157773E-04    5.5212201208E-24
 2202.897000    1.4207589358E-04    5.7303180760E-24
 2202.907020    1.4586748615E-04    5.8832436067E-24
 2202.917040    1.4715832990E-04    5.9353069450E-24
 2202.927060    1.4480814397E-04    5.8405173745E-24
 2202.937080    1.3835659288E-04    5.5803082784E-24
 2202.947100    1.2840927897E-04    5.1791052928E-24
 2202.957120    1.1635276594E-04    4.6928324084E-24
 2202.967140    1.0370071512E-04    4.1825398198E-24
 2202.977160    9.1599435697E-05    3.6944613818E-24
 2202.987180    8.0691977848E-05    3.2545331062E-24
 2202.997200    7.1216348682E-05    2.8723544851E-24
 2203.007220    6.3163511503E-05    2.5475610435E-24
 2203.017240    5.6404978302E-05    2.2749705006E-24
 2203.027260    5.0771797706E-05    2.0477685750E-24
 2203.037280    4.6095565200E-05    1.8591630419E-24
 2203.047300    4.2226908071E-05    1.7031292819E-24
 2203.057320    3.9039066160E-05    1.5745547035E-24
 2203.067340    3.6431288551E-05    1.4693757403E-24
 2203.077360    3.4324396756E-05    1.3843989027E-24
 2203.087380    3.2658356966E-05    1.3172028592E-24
 2203.097400    3.1389141651E-05    1.2660118564E-24
 2203.107420    3.0485521260E-05    1.2295663193E-24
 2203.117440    2.9925520828E-05    1.2069799359E-24
 2203.127460    2.9691930351E-05    1.1975585788E-24
 2203.137480    2.9765954469E-05    1.2005441785E-24
 2203.147500    3.0118093963E-05    1.2147469490E-24
 2203.157520    3.0696294678E-05    1.2380674006E-24
 2203.167540    3.1414298210E-05    1.2670264908E-24
 2203.177560    3.2147575968E-05    1.2966016333E-24
 2203.187580    3.2749565537E-05    1.3208815560E-24
 2203.197600    3.3092865099E-05    1.3347277873E-24
 2203.207620    3.3122267586E-05    1.3359136718E-24
 2203.217640    3.2887271421E-05    1.3264356193E-24
 2203.227660    3.2520114158E-05    1.3116271402E-24
 2203.237680    3.2194982713E-05    1.2985136799E-24
 2203.247700    3.2068960164E-05    1.2934308381E-24
 2203.257720    3.2251114575E-05    1.3007776348E-24
 2203.267740    3.2869820885E-05    1.3257317904E-24
 2203.277760    3.3718401822E-05    1.3599574325E-24
 2203.287780    3.4754213286E-05    1.4017346053E-24
 2203.297800    3.5751983487E-05    1.4419774676E-24
 2203.307820    3.6422882576E-05    1.4690367038E-24
 2203.317840    3.6505766583E-05    1.4723796476E-24
 2203.327860    3.5846801836E-05    1.4458017567E-24
 2203.337880    3.4610167065E-05    1.3959248184E-24
 2203.347900    3.3002298526E-05    1.3310749841E-24
 2203.357920    3.1303230498E-05    1.2625468194E-24
 2203.367940    2.9745523537E-05    1.1997201419E-24
 2203.377960    2.8474894628E-05    1.1484721249E-24
 2203.387980    2.7560449658E-05    1.1115900022E-24
 2203.398000    2.7015963994E-05    1.0896293728E-24
 2203.408020    2.6816957299E-05    1.0816028763E-24
 2203.418040    2.6909371546E-05    1.0853302013E-24
 2203.428060    2.7215229349E-05    1.0976663018E-24
 2203.438080    2.7643083647E-05    1.1149228621E-24
 2203.448100    2.8108124231E-05    1.1336792492E-24
 2203.458120    2.8550127454E-05    1.1515064751E-24
 2203.468140    2.8944306252E-05    1.1674048083E-24
 2203.478160    2.9279515492E-05    1.1809247343E-24
 2203.488180    2.9526682442E-05    1.1908936686E-24
 2203.498200    2.9616875832E-05    1.1945314202E-24
 2203.508220    2.9447399316E-05    1.1876959584E-24
 2203.518240    2.8919547769E-05    1.1664062295E-24
 2203.528260    2.8004868137E-05    1.1295146422E-24
 2203.538280    2.6727781381E-05    1.0780061622E-24
 2203.548300    2.5216585524E-05    1.0170554075E-24
 2203.558320    2.3616785944E-05    9.5253101690E-25
 2203.568340    2.2055265066E-05    8.8955051342E-25
 2203.578360    2.0618188097E-05    8.3158918073E-25
 2203.588380    1.9350412181E-05    7.8045623297E-25
 2203.598400    1.8266426705E-05    7.3673606756E-25
 2203.608420    1.7359133087E-05    7.0014237887E-25
 2203.618440    1.6622119039E-05    6.7041654140E-25
 2203.628460    1.6035725012E-05    6.4676563056E-25
