# Absorption coefficients
# CDSD 296K. Molecule CO2. Isotopologue(s): 626,636,628.
# Wavenumber range: 600-3000 cm-1, T: 296 K, P: 5 atm, step: 0.05007 cm-1, Profile: Voigt, Wing: 50 HW, Scut: 1e-28 cm/mol
# KNa, Ka and thier units definition in Eqs(2)-(3) of  http://spectra.iao.ru/home.sim-theory.sp-functions.
# WN,cm-1           KNa,cm-1       Ka,cm**2/molecule (FORMAT F12.6,3X,E17.10,3X,E17.10)

  600.038880    4.9866300036E-01    4.0224946439E-21
  600.088950    4.9946192442E-01    4.0289392121E-21
  600.139020    5.0026535999E-01    4.0354201728E-21
  600.189090    5.0107336955E-01    4.0419380298E-21
  600.239160    5.0188600787E-01    4.0484932249E-21
  600.289230    5.0270333013E-01    4.0550862034E-21
  600.339300    5.0352536188E-01    4.0617171712E-21
  600.389370    5.0435214689E-01    4.0683864815E-21
  600.439440    5.0518371594E-01    4.0750943826E-21
  600.489510    5.0602009116E-01    4.0818410528E-21
  600.539580    5.0686130005E-01    4.0886267142E-21
  600.589650    5.0770734071E-01    4.0954513513E-21
  600.639720    5.0855822940E-01    4.1023150954E-21
  600.689790    5.0941397030E-01    4.1092179800E-21
  600.739860    5.1027456486E-01    4.1161600170E-21
  600.789930    5.1114001160E-01    4.1231411944E-21
  600.840000    5.1201028787E-01    4.1301613296E-21
  600.890070    5.1288538942E-01    4.1372203880E-21
  600.940140    5.1376530011E-01    4.1443182398E-21
  600.990210    5.1465003125E-01    4.1514549759E-21
  601.040280    5.1553950869E-01    4.1586299985E-21
  601.090350    5.1643372168E-01    4.1658432205E-21
  601.140420    5.1733265183E-01    4.1730944939E-21
  601.190490    5.1823632200E-01    4.1803840028E-21
  601.240560    5.1914459925E-01    4.1877106751E-21
  601.290630    5.2005750335E-01    4.1950746701E-21
  601.340700    5.2097500162E-01    4.2024757243E-21
  601.390770    5.2189711092E-01    4.2099139736E-21
  601.440840    5.2282369614E-01    4.2173883282E-21
  601.490910    5.2375485215E-01    4.2248995533E-21
  601.540980    5.2469039346E-01    4.2324461528E-21
  601.591050    5.2563034802E-01    4.2400283519E-21
  601.641120    5.2657468783E-01    4.2476459250E-21
  601.691190    5.2752337745E-01    4.2552985860E-21
  601.741260    5.2847638111E-01    4.2629860465E-21
  601.791330    5.2943367131E-01    4.2707080846E-21
  601.841400    5.3039519524E-01    4.2784642744E-21
  601.891470    5.3136093377E-01    4.2862544615E-21
  601.941540    5.3233083305E-01    4.2940782115E-21
  601.991610    5.3330486505E-01    4.3019352983E-21
  602.041680    5.3428300071E-01    4.3098254876E-21
  602.091750    5.3526518606E-01    4.3177483439E-21
  602.141820    5.3625139117E-01    4.3257036259E-21
  602.191890    5.3724157942E-01    4.3336910381E-21
  602.241960    5.3823570746E-01    4.3417102309E-21
  602.292030    5.3923373751E-01    4.3497608994E-21
  602.342100    5.4023562922E-01    4.3578427182E-21
  602.392170    5.4124134159E-01    4.3659553567E-21
  602.442240    5.4225083333E-01    4.3740984816E-21
  602.492310    5.4326406357E-01    4.3822717634E-21
  602.542380    5.4428099721E-01    4.3904749189E-21
  602.592450    5.4530157641E-01    4.3987074815E-21
  602.642520    5.4632576769E-01    4.4069691811E-21
  602.692590    5.4735352946E-01    4.4152596823E-21
  602.742660    5.4838482069E-01    4.4235786542E-21
  602.792730    5.4941960104E-01    4.4319257711E-21
  602.842800    5.5045783089E-01    4.4403007138E-21
  602.892870    5.5149950374E-01    4.4487034296E-21
  602.942940    5.5254451996E-01    4.4571331149E-21
  602.993010    5.5359287224E-01    4.4655897107E-21
  603.043080    5.5464452747E-01    4.4740729499E-21
  603.093150    5.5569945280E-01    4.4825825676E-21
  603.143220    5.5675761686E-01    4.4911183106E-21
  603.193290    5.5781898987E-01    4.4996799389E-21
  603.243360    5.5888354375E-01    4.5082672259E-21
  603.293430    5.5995125200E-01    4.5168799578E-21
  603.343500    5.6102208975E-01    4.5255179339E-21
  603.393570    5.6209603354E-01    4.5341809651E-21
  603.443640    5.6317306178E-01    4.5428688773E-21
  603.493710    5.6425315531E-01    4.5515815158E-21
  603.543780    5.6533629031E-01    4.5603186884E-21
  603.593850    5.6642245234E-01    4.5690802788E-21
  603.643920    5.6751162093E-01    4.5778661218E-21
  603.693990    5.6860378135E-01    4.5866760986E-21
  603.744060    5.6969891783E-01    4.5955100818E-21
  603.794130    5.7079701588E-01    4.6043679548E-21
  603.844200    5.7189807111E-01    4.6132496821E-21
  603.894270    5.7300205198E-01    4.6221550092E-21
  603.944340    5.7410895614E-01    4.6310839172E-21
  603.994410    5.7521877307E-01    4.6400363212E-21
  604.044480    5.7633149355E-01    4.6490121469E-21
  604.094550    5.7744710991E-01    4.6580113324E-21
  604.144620    5.7856561638E-01    4.6670338312E-21
  604.194690    5.7968700925E-01    4.6760796132E-21
  604.244760    5.8081128724E-01    4.6851486682E-21
  604.294830    5.8193845175E-01    4.6942410076E-21
  604.344900    5.8306850729E-01    4.7033566675E-21
  604.394970    5.8420146322E-01    4.7124957237E-21
  604.445040    5.8533732793E-01    4.7216582437E-21
  604.495110    5.8647611846E-01    4.7308443650E-21
  604.545180    5.8761785454E-01    4.7400542468E-21
  604.595250    5.8876256035E-01    4.7492880840E-21
  604.645320    5.8991026469E-01    4.7585461091E-21
  604.695390    5.9106100152E-01    4.7678285959E-21
  604.745460    5.9221480858E-01    4.7771358489E-21
  604.795530    5.9337172962E-01    4.7864682210E-21
  604.845600    5.9453181270E-01    4.7958261000E-21
  604.895670    5.9569511083E-01    4.8052099133E-21
  604.945740    5.9686171896E-01    4.8146204269E-21
  604.995810    5.9803162432E-01    4.8240575378E-21
  605.045880    5.9920493167E-01    4.8335220910E-21
  605.095950    6.0038170868E-01    4.8430146326E-21
  605.146020    6.0156203036E-01    4.8525357674E-21
  605.196090    6.0274597361E-01    4.8620861157E-21
  605.246160    6.0393361847E-01    4.8716663233E-21
  605.296230    6.0512504755E-01    4.8812770567E-21
  605.346300    6.0632035245E-01    4.8909190544E-21
  605.396370    6.0751960673E-01    4.9005929102E-21
  605.446440    6.0872290586E-01    4.9102993939E-21
  605.496510    6.0993033949E-01    4.9200392288E-21
  605.546580    6.1114205265E-01    4.9298135849E-21
  605.596650    6.1235803044E-01    4.9396223418E-21
  605.646720    6.1357841958E-01    4.9494666831E-21
  605.696790    6.1480332046E-01    4.9593474186E-21
  605.746860    6.1603281474E-01    4.9692652071E-21
  605.796930    6.1726700424E-01    4.9792208698E-21
  605.847000    6.1850598551E-01    4.9892151857E-21
  605.897070    6.1974985446E-01    4.9992489283E-21
  605.947140    6.2099870888E-01    5.0093228865E-21
  605.997210    6.2225264718E-01    5.0194378540E-21
  606.047280    6.2351176893E-01    5.0295946343E-21
  606.097350    6.2477617482E-01    5.0397940393E-21
  606.147420    6.2604596677E-01    5.0500368913E-21
  606.197490    6.2732132071E-01    5.0603246095E-21
  606.247560    6.2860219577E-01    5.0706568641E-21
  606.297630    6.2988877093E-01    5.0810350988E-21
  606.347700    6.3118115402E-01    5.0914601836E-21
  606.397770    6.3247945402E-01    5.1019329975E-21
  606.447840    6.3378378227E-01    5.1124544386E-21
  606.497910    6.3509425146E-01    5.1230254160E-21
  606.547980    6.3641097609E-01    5.1336468533E-21
  606.598050    6.3773407194E-01    5.1443196843E-21
  606.648120    6.3906365670E-01    5.1550448586E-21
  606.698190    6.4039984939E-01    5.1658233361E-21
  606.748260    6.4174277061E-01    5.1766560898E-21
  606.798330    6.4309254229E-01    5.1875441030E-21
  606.848400    6.4444930819E-01    5.1984885355E-21
  606.898470    6.4581315231E-01    5.2094900650E-21
  606.948540    6.4718422114E-01    5.2205498729E-21
  606.998610    6.4856264761E-01    5.2316690317E-21
  607.048680    6.4994854998E-01    5.2428484953E-21
  607.098750    6.5134216952E-01    5.2540902099E-21
  607.148820    6.5274342735E-01    5.2653935392E-21
  607.198890    6.5415256323E-01    5.2767604173E-21
  607.248960    6.5556975385E-01    5.2881922694E-21
  607.299030    6.5699505627E-01    5.2996895559E-21
  607.349100    6.5842868453E-01    5.3112540032E-21
  607.399170    6.5987071771E-01    5.3228862493E-21
  607.449240    6.6132133509E-01    5.3345877403E-21
  607.499310    6.6278071253E-01    5.3463598950E-21
  607.549380    6.6424898866E-01    5.3582038313E-21
  607.599450    6.6572627699E-01    5.3701204652E-21
  607.649520    6.6721279510E-01    5.3821115517E-21
  607.699590    6.6870867149E-01    5.3941781272E-21
  607.749660    6.7021409842E-01    5.4063217428E-21
  607.799730    6.7172926891E-01    5.4185439553E-21
  607.849800    6.7325433652E-01    5.4308460036E-21
  607.899870    6.7478950560E-01    5.4432295359E-21
  607.949940    6.7633497144E-01    5.4556961277E-21
  608.000010    6.7789093530E-01    5.4682474024E-21
  608.050080    6.7945760457E-01    5.4808850329E-21
  608.100150    6.8103519284E-01    5.4936107421E-21
  608.150220    6.8262391980E-01    5.5064263023E-21
  608.200290    6.8422401134E-01    5.5193335356E-21
  608.250360    6.8583569945E-01    5.5323343132E-21
  608.300430    6.8745922349E-01    5.5454305661E-21
  608.350500    6.8909487059E-01    5.5586246104E-21
  608.400570    6.9074280046E-01    5.5719177343E-21
  608.450640    6.9240331440E-01    5.5853123684E-21
  608.500710    6.9407667387E-01    5.5988106218E-21
  608.550780    6.9576314620E-01    5.6124146508E-21
  608.600850    6.9746300358E-01    5.6261266511E-21
  608.650920    6.9917652460E-01    5.6399488699E-21
  608.700990    7.0090399360E-01    5.6538836010E-21
  608.751060    7.0264569957E-01    5.6679331753E-21
  608.801130    7.0440193826E-01    5.6820999788E-21
  608.851200    7.0617301102E-01    5.6963864422E-21
  608.901270    7.0795922513E-01    5.7107950442E-21
  608.951340    7.0976089510E-01    5.7253283218E-21
  609.001410    7.1157833902E-01    5.7399888408E-21
  609.051480    7.1341188448E-01    5.7547792440E-21
  609.101550    7.1526186490E-01    5.7697022206E-21
  609.151620    7.1712862087E-01    5.7847605184E-21
  609.201690    7.1901250055E-01    5.7999569454E-21
  609.251760    7.2091385961E-01    5.8152943710E-21
  609.301830    7.2283311356E-01    5.8307761466E-21
  609.351900    7.2477053549E-01    5.8464044755E-21
  609.401970    7.2672654817E-01    5.8621827677E-21
  609.452040    7.2870154550E-01    5.8781142007E-21
  609.502110    7.3069598539E-01    5.8942024682E-21
  609.552180    7.3271015420E-01    5.9104498803E-21
  609.602250    7.3474452864E-01    5.9268602823E-21
  609.652320    7.3679953366E-01    5.9434371021E-21
  609.702390    7.3887560508E-01    5.9601838552E-21
  609.752460    7.4097318569E-01    5.9771041135E-21
  609.802530    7.4309272987E-01    5.9942015422E-21
  609.852600    7.4523470082E-01    6.0114798779E-21
  609.902670    7.4739957134E-01    6.0289429342E-21
  609.952740    7.4958782370E-01    6.0465946015E-21
  610.002810    7.5179994945E-01    6.0644388450E-21
  610.052880    7.5403644968E-01    6.0824797066E-21
  610.102950    7.5629783496E-01    6.1007213050E-21
  610.153020    7.5858462527E-01    6.1191678345E-21
  610.203090    7.6089734990E-01    6.1378235649E-21
  610.253160    7.6323660294E-01    6.1566932881E-21
  610.303230    7.6560282160E-01    6.1757805312E-21
  610.353300    7.6799661926E-01    6.1950902418E-21
  610.403370    7.7041856188E-01    6.2146269855E-21
  610.453440    7.7286922707E-01    6.2343954215E-21
  610.503510    7.7534921205E-01    6.2544003673E-21
  610.553580    7.7785909050E-01    6.2746464506E-21
  610.603650    7.8039947992E-01    6.2951386524E-21
  610.653720    7.8297099665E-01    6.3158819445E-21
  610.703790    7.8557427584E-01    6.3368814503E-21
  610.753860    7.8820993714E-01    6.3581421684E-21
  610.803930    7.9087864042E-01    6.3796694216E-21
  610.854000    7.9358105028E-01    6.4014685708E-21
  610.904070    7.9631781334E-01    6.4235448323E-21
  610.954140    7.9908962300E-01    6.4459037992E-21
  611.004210    8.0189717257E-01    6.4685510641E-21
  611.054280    8.0474116291E-01    6.4914922808E-21
  611.104350    8.0762230965E-01    6.5147332216E-21
  611.154420    8.1054133941E-01    6.5382797482E-21
  611.204490    8.1349904791E-01    6.5621382791E-21
  611.254560    8.1649616176E-01    6.5863146755E-21
  611.304630    8.1953331568E-01    6.6108140576E-21
  611.354700    8.2261137501E-01    6.6356434056E-21
  611.404770    8.2573112466E-01    6.6608090511E-21
  611.454840    8.2889336194E-01    6.6863174255E-21
  611.504910    8.3209889329E-01    6.7121750341E-21
  611.554980    8.3534853819E-01    6.7383884873E-21
  611.605050    8.3864312745E-01    6.7649644868E-21
  611.655120    8.4198350259E-01    6.7919098208E-21
  611.705190    8.4537051566E-01    6.8192313625E-21
  611.755260    8.4880502955E-01    6.8469360722E-21
  611.805330    8.5228791785E-01    6.8750309972E-21
  611.855400    8.5582006274E-01    6.9035232532E-21
  611.905470    8.5940243046E-01    6.9324206347E-21
  611.955540    8.6303577757E-01    6.9617292445E-21
  612.005610    8.6672108830E-01    6.9914570219E-21
  612.055680    8.7045928250E-01    7.0216113869E-21
  612.105750    8.7425128846E-01    7.0521998278E-21
  612.155820    8.7809804221E-01    7.0832298948E-21
  612.205890    8.8200048708E-01    7.1147091976E-21
  612.255960    8.8595957333E-01    7.1466454015E-21
  612.306030    8.8997626519E-01    7.1790462845E-21
  612.356100    8.9405150832E-01    7.2119194746E-21
  612.406170    8.9818627725E-01    7.2452728333E-21
  612.456240    9.0238154306E-01    7.2791141935E-21
  612.506310    9.0663828226E-01    7.3134514325E-21
  612.556380    9.1095746677E-01    7.3482923903E-21
  612.606450    9.1534007640E-01    7.3836449706E-21
  612.656520    9.1978708959E-01    7.4195170661E-21
  612.706590    9.2429948378E-01    7.4559165612E-21
  612.756660    9.2887823428E-01    7.4928513235E-21
  612.806730    9.3352431292E-01    7.5303291922E-21
  612.856800    9.3823868694E-01    7.5683579695E-21
  612.906870    9.4302231702E-01    7.6069454051E-21
  612.956940    9.4787615402E-01    7.6460991689E-21
  613.007010    9.5280114104E-01    7.6858268686E-21
  613.057080    9.5779820825E-01    7.7261360074E-21
  613.107150    9.6286827157E-01    7.7670339736E-21
  613.157220    9.6801223079E-01    7.8085280254E-21
  613.207290    9.7323096698E-01    7.8506252702E-21
  613.257360    9.7852534063E-01    7.8933326490E-21
  613.307430    9.8389618732E-01    7.9366569021E-21
  613.357500    9.8934432552E-01    7.9806046318E-21
  613.407570    9.9487051671E-01    8.0251819805E-21
  613.457640    1.0004755174E+00    8.0703950503E-21
  613.507710    1.0061600397E+00    8.1162495866E-21
  613.557780    1.0119247574E+00    8.1627510237E-21
  613.607850    1.0177702914E+00    8.2099043705E-21
  613.657920    1.0236972279E+00    8.2577143545E-21
  613.707990    1.0297060967E+00    8.3061852511E-21
  613.758060    1.0357973734E+00    8.3553208953E-21
  613.808130    1.0419714739E+00    8.4051246432E-21
  613.858200    1.0482287505E+00    8.4555993353E-21
  613.908270    1.0545694856E+00    8.5067472511E-21
  613.958340    1.0609938889E+00    8.5585700805E-21
  614.008410    1.0675020905E+00    8.6110688744E-21
  614.058480    1.0740941377E+00    8.6642440143E-21
  614.108550    1.0807699842E+00    8.7180951253E-21
  614.158620    1.0875295373E+00    8.7726214612E-21
  614.208690    1.0943725587E+00    8.8278210991E-21
  614.258760    1.1012985551E+00    8.8836900593E-21
  614.308830    1.1083072418E+00    8.9402260461E-21
  614.358900    1.1153978660E+00    8.9974229865E-21
  614.408970    1.1225698002E+00    9.0552758186E-21
  614.459040    1.1298221979E+00    9.1137777145E-21
  614.509110    1.1371540723E+00    9.1729207138E-21
  614.559180    1.1445642858E+00    9.2326956398E-21
  614.609250    1.1520515429E+00    9.2930920427E-21
  614.659320    1.1596143883E+00    9.3540981839E-21
  614.709390    1.1672511940E+00    9.4157009296E-21
  614.759460    1.1749601533E+00    9.4778857066E-21
  614.809530    1.1827392727E+00    9.5406364339E-21
  614.859600    1.1905863668E+00    9.6039354833E-21
  614.909670    1.1984990414E+00    9.6677635426E-21
  614.959740    1.2064747003E+00    9.7320996678E-21
  615.009810    1.2145105278E+00    9.7969211465E-21
  615.059880    1.2226034847E+00    9.8622034623E-21
  615.109950    1.2307502994E+00    9.9279202263E-21
  615.160020    1.2389474636E+00    9.9940431371E-21
  615.210090    1.2471912234E+00    1.0060541914E-20
  615.260160    1.2554775754E+00    1.0127384264E-20
  615.310230    1.2638022597E+00    1.0194535823E-20
  615.360300    1.2721607552E+00    1.0261960122E-20
  615.410370    1.2805482747E+00    1.0329618545E-20
  615.460440    1.2889597614E+00    1.0397470301E-20
  615.510510    1.2973898875E+00    1.0465472413E-20
  615.560580    1.3058330460E+00    1.0533579651E-20
  615.610650    1.3142833577E+00    1.0601744591E-20
  615.660720    1.3227346651E+00    1.0669917563E-20
  615.710790    1.3311805360E+00    1.0738046681E-20
  615.760860    1.3396142634E+00    1.0806077843E-20
  615.810930    1.3480288712E+00    1.0873954776E-20
  615.861000    1.3564171146E+00    1.0941619038E-20
  615.911070    1.3647714927E+00    1.1009010124E-20
  615.961140    1.3730842518E+00    1.1076065488E-20
  616.011210    1.3813473952E+00    1.1142720624E-20
  616.061280    1.3895526954E+00    1.1208909164E-20
  616.111350    1.3976917062E+00    1.1274562977E-20
  616.161420    1.4057557777E+00    1.1339612288E-20
  616.211490    1.4137360726E+00    1.1403985809E-20
  616.261560    1.4216236940E+00    1.1467611775E-20
  616.311630    1.4294092774E+00    1.1530414645E-20
  616.361700    1.4370836365E+00    1.1592320317E-20
  616.411770    1.4446373974E+00    1.1653253177E-20
  616.461840    1.4520611032E+00    1.1713136940E-20
  616.511910    1.4593452520E+00    1.1771894958E-20
  616.561980    1.4664803187E+00    1.1829450396E-20
  616.612050    1.4734569058E+00    1.1885727449E-20
  616.662120    1.4802653393E+00    1.1940648082E-20
  616.712190    1.4868963495E+00    1.1994137519E-20
  616.762260    1.4933406776E+00    1.2046121074E-20
  616.812330    1.4995892201E+00    1.2096525311E-20
  616.862400    1.5056330662E+00    1.2145278354E-20
  616.912470    1.5114635371E+00    1.2192310194E-20
  616.962540    1.5170722245E+00    1.2237553003E-20
  617.012610    1.5224510297E+00    1.2280941453E-20
  617.062680    1.5275922026E+00    1.2322413029E-20
  617.112750    1.5324883801E+00    1.2361908335E-20
  617.162820    1.5371326237E+00    1.2399371402E-20
  617.212890    1.5415184561E+00    1.2434749979E-20
  617.262960    1.5456398962E+00    1.2467995819E-20
  617.313030    1.5494914923E+00    1.2499064948E-20
  617.363100    1.5530683533E+00    1.2527917909E-20
  617.413170    1.5563661779E+00    1.2554520006E-20
  617.463240    1.5593812801E+00    1.2578841507E-20
  617.513310    1.5621106130E+00    1.2600857832E-20
  617.563380    1.5645517880E+00    1.2620549715E-20
  617.613450    1.5667030917E+00    1.2637903335E-20
  617.663520    1.5685634989E+00    1.2652910419E-20
  617.713590    1.5701326808E+00    1.2665568318E-20
  617.763660    1.5714110112E+00    1.2675880046E-20
  617.813730    1.5723995695E+00    1.2683854310E-20
  617.863800    1.5731001263E+00    1.2689505393E-20
  617.913870    1.5735151545E+00    1.2692853243E-20
  617.963940    1.5736478066E+00    1.2693923288E-20
  618.014010    1.5735019022E+00    1.2692746342E-20
  618.064080    1.5730819099E+00    1.2689358449E-20
  618.114150    1.5723929252E+00    1.2683800713E-20
