3998.02611	0.50790
3997.00569	0.50781
3995.98526	0.50776
3994.96484	0.50769
3993.94441	0.50767
3992.92399	0.50764
3991.90356	0.50741
3990.88314	0.50720
3989.86271	0.50729
3988.84229	0.50741
3987.82186	0.50734
3986.80143	0.50728
3985.78101	0.50744
3984.76058	0.50765
3983.74016	0.50769
3982.71973	0.50761
3981.69931	0.50762
3980.67888	0.50774
3979.65846	0.50783
3978.63803	0.50776
3977.61761	0.50744
3976.59718	0.50705
3975.57676	0.50712
3974.55633	0.50739
3973.53591	0.50736
3972.51548	0.50720
3971.49506	0.50720
3970.47463	0.50720
3969.45421	0.50712
3968.43378	0.50714
3967.41336	0.50735
3966.39293	0.50750
3965.37250	0.50769
3964.35208	0.50793
3963.33165	0.50789
3962.31123	0.50757
3961.29080	0.50753
3960.27038	0.50779
3959.24995	0.50774
3958.22953	0.50742
3957.20910	0.50729
3956.18868	0.50747
3955.16825	0.50766
3954.14783	0.50775
3953.12740	0.50785
3952.10698	0.50801
3951.08655	0.50808
3950.06613	0.50801
3949.04570	0.50797
3948.02528	0.50787
3947.00485	0.50767
3945.98442	0.50765
3944.96400	0.50746
3943.94357	0.50708
3942.92315	0.50703
3941.90272	0.50747
3940.88230	0.50786
3939.86187	0.50745
3938.84145	0.50690
3937.82102	0.50709
3936.80060	0.50793
3935.78017	0.50883
3934.75975	0.50943
3933.73932	0.50975
3932.71890	0.50978
3931.69847	0.50942
3930.67805	0.50866
3929.65762	0.50779
3928.63720	0.50739
3927.61677	0.50753
3926.59635	0.50763
3925.57592	0.50763
3924.55549	0.50794
3923.53507	0.50858
3922.51464	0.50893
3921.49422	0.50873
3920.47379	0.50865
3919.45337	0.50908
3918.43294	0.50957
3917.41252	0.50943
3916.39209	0.50894
3915.37167	0.50868
3914.35124	0.50845
3913.33082	0.50818
3912.31039	0.50828
3911.28997	0.50891
3910.26954	0.50982
3909.24912	0.51077
3908.22869	0.51161
3907.20827	0.51219
3906.18784	0.51239
3905.16742	0.51245
3904.14699	0.51256
3903.12656	0.51250
3902.10614	0.51163
3901.08571	0.50959
3900.06529	0.50711
3899.04486	0.50551
3898.02444	0.50574
3897.00401	0.50711
3895.98359	0.50831
3894.96316	0.50940
3893.94274	0.51069
3892.92231	0.51161
3891.90189	0.51180
3890.88146	0.51193
3889.86104	0.51257
3888.84061	0.51295
3887.82019	0.51244
3886.79976	0.51174
3885.77934	0.51191
3884.75891	0.51284
3883.73848	0.51334
3882.71806	0.51231
3881.69763	0.51046
3880.67721	0.50957
3879.65678	0.51028
3878.63636	0.51175
3877.61593	0.51245
3876.59551	0.51217
3875.57508	0.51192
3874.55466	0.51260
3873.53423	0.51436
3872.51381	0.51583
3871.49338	0.51508
3870.47296	0.51308
3869.45253	0.51251
3868.43211	0.51358
3867.41168	0.51382
3866.39126	0.51220
3865.37083	0.51081
3864.35041	0.51132
3863.32998	0.51276
3862.30955	0.51322
3861.28913	0.51294
3860.26870	0.51336
3859.24828	0.51455
3858.22785	0.51628
3857.20743	0.51870
3856.18700	0.52089
3855.16658	0.52103
3854.14615	0.51900
3853.12573	0.51677
3852.10530	0.51502
3851.08488	0.51301
3850.06445	0.51124
3849.04403	0.51077
3848.02360	0.51204
3847.00318	0.51442
3845.98275	0.51663
3844.96233	0.51812
3843.94190	0.51936
3842.92148	0.52073
3841.90105	0.52167
3840.88062	0.52135
3839.86020	0.52006
3838.83977	0.51869
3837.81935	0.51771
3836.79892	0.51744
3835.77850	0.51735
3834.75807	0.51709
3833.73765	0.51716
3832.71722	0.51746
3831.69680	0.51782
3830.67637	0.51901
3829.65595	0.52046
3828.63552	0.52077
3827.61510	0.52041
3826.59467	0.52099
3825.57425	0.52295
3824.55382	0.52494
3823.53340	0.52543
3822.51297	0.52425
3821.49255	0.52293
3820.47212	0.52338
3819.45169	0.52470
3818.43127	0.52435
3817.41084	0.52188
3816.39042	0.51970
3815.36999	0.52028
3814.34957	0.52253
3813.32914	0.52383
3812.30872	0.52405
3811.28829	0.52495
3810.26787	0.52697
3809.24744	0.52876
3808.22702	0.52918
3807.20659	0.52891
3806.18617	0.52963
3805.16574	0.53096
3804.14532	0.53083
3803.12489	0.52877
3802.10447	0.52650
3801.08404	0.52607
3800.06361	0.52755
3799.04319	0.52838
3798.02276	0.52732
3797.00234	0.52618
3795.98191	0.52689
3794.96149	0.52881
3793.94106	0.53022
3792.92064	0.53076
3791.90021	0.53128
3790.87979	0.53221
3789.85936	0.53332
3788.83894	0.53435
3787.81851	0.53510
3786.79809	0.53534
3785.77766	0.53515
3784.75724	0.53511
3783.73681	0.53573
3782.71639	0.53662
3781.69596	0.53682
3780.67554	0.53620
3779.65511	0.53574
3778.63468	0.53620
3777.61426	0.53709
3776.59383	0.53744
3775.57341	0.53755
3774.55298	0.53829
3773.53256	0.53966
3772.51213	0.54083
3771.49171	0.54114
3770.47128	0.54101
3769.45086	0.54144
3768.43043	0.54229
3767.41001	0.54210
3766.38958	0.54083
3765.36916	0.54048
3764.34873	0.54178
3763.32831	0.54340
3762.30788	0.54410
3761.28746	0.54400
3760.26703	0.54406
3759.24661	0.54482
3758.22618	0.54580
3757.20575	0.54628
3756.18533	0.54682
3755.16490	0.54819
3754.14448	0.54933
3753.12405	0.54936
3752.10363	0.54913
3751.08320	0.54917
3750.06278	0.54840
3749.04235	0.54757
3748.02193	0.54853
3747.00150	0.54947
3745.98108	0.54785
3744.96065	0.54583
3743.94023	0.54684
3742.91980	0.55001
3741.89938	0.55149
3740.87895	0.55125
3739.85853	0.55201
3738.83810	0.55430
3737.81767	0.55652
3736.79725	0.55763
3735.77682	0.55793
3734.75640	0.55784
3733.73597	0.55723
3732.71555	0.55588
3731.69512	0.55512
3730.67470	0.55635
3729.65427	0.55828
3728.63385	0.55920
3727.61342	0.55931
3726.59300	0.55949
3725.57257	0.56013
3724.55215	0.56057
3723.53172	0.56012
3722.51130	0.55922
3721.49087	0.55889
3720.47045	0.55913
3719.45002	0.55917
3718.42960	0.55931
3717.40917	0.56025
3716.38874	0.56177
3715.36832	0.56331
3714.34789	0.56437
3713.32747	0.56447
3712.30704	0.56375
3711.28662	0.56300
3710.26619	0.56233
3709.24577	0.56158
3708.22534	0.56159
3707.20492	0.56260
3706.18449	0.56384
3705.16407	0.56520
3704.14364	0.56648
3703.12322	0.56694
3702.10279	0.56669
3701.08237	0.56686
3700.06194	0.56758
3699.04152	0.56779
3698.02109	0.56735
3697.00067	0.56719
3695.98024	0.56781
3694.95981	0.56901
3693.93939	0.57023
3692.91896	0.57089
3691.89854	0.57085
3690.87811	0.57028
3689.85769	0.56897
3688.83726	0.56688
3687.81684	0.56543
3686.79641	0.56584
3685.77599	0.56654
3684.75556	0.56674
3683.73514	0.56738
3682.71471	0.56884
3681.69429	0.57036
3680.67386	0.57154
3679.65344	0.57285
3678.63301	0.57426
3677.61259	0.57413
3676.59216	0.57127
3675.57173	0.56841
3674.55131	0.56883
3673.53088	0.57107
3672.51046	0.57108
3671.49003	0.56809
3670.46961	0.56537
3669.44918	0.56566
3668.42876	0.56794
3667.40833	0.56983
3666.38791	0.57061
3665.36748	0.57099
3664.34706	0.57181
3663.32663	0.57314
3662.30621	0.57452
3661.28578	0.57570
3660.26536	0.57682
3659.24493	0.57779
3658.22451	0.57797
3657.20408	0.57704
3656.18366	0.57617
3655.16323	0.57692
3654.14280	0.57848
3653.12238	0.57904
3652.10195	0.57825
3651.08153	0.57713
3650.06110	0.57669
3649.04068	0.57623
3648.02025	0.57441
3646.99983	0.57218
3645.97940	0.57171
3644.95898	0.57297
3643.93855	0.57447
3642.91813	0.57579
3641.89770	0.57735
3640.87728	0.57896
3639.85685	0.58007
3638.83643	0.58069
3637.81600	0.58140
3636.79558	0.58235
3635.77515	0.58291
3634.75473	0.58295
3633.73430	0.58348
3632.71387	0.58538
3631.69345	0.58735
3630.67302	0.58689
3629.65260	0.58393
3628.63217	0.58115
3627.61175	0.58067
3626.59132	0.58135
3625.57090	0.58178
3624.55047	0.58256
3623.53005	0.58426
3622.50962	0.58620
3621.48920	0.58725
3620.46877	0.58700
3619.44835	0.58612
3618.42792	0.58558
3617.40750	0.58559
3616.38707	0.58565
3615.36665	0.58526
3614.34622	0.58450
3613.32579	0.58416
3612.30537	0.58483
3611.28494	0.58615
3610.26452	0.58679
3609.24409	0.58621
3608.22367	0.58552
3607.20324	0.58557
3606.18282	0.58613
3605.16239	0.58701
3604.14197	0.58796
3603.12154	0.58873
3602.10112	0.58926
3601.08069	0.58955
3600.06027	0.58981
3599.03984	0.59018
3598.01942	0.59044
3596.99899	0.59043
3595.97857	0.59017
3594.95814	0.58986
3593.93772	0.58986
3592.91729	0.59033
3591.89686	0.59137
3590.87644	0.59255
3589.85601	0.59307
3588.83559	0.59254
3587.81516	0.59131
3586.79474	0.59011
3585.77431	0.58952
3584.75389	0.58959
3583.73346	0.58988
3582.71304	0.59030
3581.69261	0.59100
3580.67219	0.59174
3579.65176	0.59229
3578.63134	0.59272
3577.61091	0.59293
3576.59049	0.59286
3575.57006	0.59277
3574.54964	0.59281
3573.52921	0.59307
3572.50879	0.59367
3571.48836	0.59451
3570.46793	0.59529
3569.44751	0.59562
3568.42708	0.59493
3567.40666	0.59313
3566.38623	0.59108
3565.36581	0.58976
3564.34538	0.58958
3563.32496	0.59011
3562.30453	0.59087
3561.28411	0.59174
3560.26368	0.59255
3559.24326	0.59329
3558.22283	0.59396
3557.20241	0.59436
3556.18198	0.59468
3555.16156	0.59511
3554.14113	0.59520
3553.12071	0.59475
3552.10028	0.59431
3551.07985	0.59464
3550.05943	0.59543
3549.03900	0.59588
3548.01858	0.59578
3546.99815	0.59543
3545.97773	0.59510
3544.95730	0.59471
3543.93688	0.59437
3542.91645	0.59443
3541.89603	0.59492
3540.87560	0.59557
3539.85518	0.59617
3538.83475	0.59663
3537.81433	0.59681
3536.79390	0.59660
3535.77348	0.59649
3534.75305	0.59682
3533.73263	0.59719
3532.71220	0.59728
3531.69178	0.59737
3530.67135	0.59752
3529.65092	0.59743
3528.63050	0.59702
3527.61007	0.59667
3526.58965	0.59680
3525.56922	0.59711
3524.54880	0.59707
3523.52837	0.59658
3522.50795	0.59637
3521.48752	0.59700
3520.46710	0.59762
3519.44667	0.59776
3518.42625	0.59785
3517.40582	0.59815
3516.38540	0.59847
3515.36497	0.59877
3514.34455	0.59913
3513.32412	0.59948
3512.30370	0.59974
3511.28327	0.59969
3510.26285	0.59914
3509.24242	0.59842
3508.22199	0.59850
3507.20157	0.59950
3506.18114	0.60022
3505.16072	0.59996
3504.14029	0.59916
3503.11987	0.59875
3502.09944	0.59920
3501.07902	0.59955
3500.05859	0.59946
3499.03817	0.59949
3498.01774	0.59983
3496.99732	0.60003
3495.97689	0.60009
3494.95647	0.60027
3493.93604	0.60050
3492.91562	0.60067
3491.89519	0.60094
3490.87477	0.60129
3489.85434	0.60147
3488.83391	0.60130
3487.81349	0.60100
3486.79306	0.60107
3485.77264	0.60149
3484.75221	0.60182
3483.73179	0.60169
3482.71136	0.60110
3481.69094	0.60074
3480.67051	0.60112
3479.65009	0.60158
3478.62966	0.60176
3477.60924	0.60187
3476.58881	0.60198
3475.56839	0.60209
3474.54796	0.60212
3473.52754	0.60218
3472.50711	0.60226
3471.48669	0.60231
3470.46626	0.60245
3469.44584	0.60271
3468.42541	0.60287
3467.40498	0.60286
3466.38456	0.60305
3465.36413	0.60342
3464.34371	0.60348
3463.32328	0.60312
3462.30286	0.60286
3461.28243	0.60297
3460.26201	0.60317
3459.24158	0.60329
3458.22116	0.60341
3457.20073	0.60359
3456.18031	0.60373
3455.15988	0.60377
3454.13946	0.60385
3453.11903	0.60402
3452.09861	0.60421
3451.07818	0.60443
3450.05776	0.60472
3449.03733	0.60486
3448.01691	0.60441
3446.99648	0.60362
3445.97605	0.60373
3444.95563	0.60443
3443.93520	0.60463
3442.91478	0.60440
3441.89435	0.60439
3440.87393	0.60471
3439.85350	0.60500
3438.83308	0.60510
3437.81265	0.60521
3436.79223	0.60539
3435.77180	0.60558
3434.75138	0.60579
3433.73095	0.60601
3432.71053	0.60608
3431.69010	0.60601
3430.66968	0.60599
3429.64925	0.60608
3428.62883	0.60616
3427.60840	0.60620
3426.58797	0.60637
3425.56755	0.60658
3424.54712	0.60680
3423.52670	0.60707
3422.50627	0.60712
3421.48585	0.60683
3420.46542	0.60668
3419.44500	0.60691
3418.42457	0.60718
3417.40415	0.60722
3416.38372	0.60732
3415.36330	0.60767
3414.34287	0.60799
3413.32245	0.60816
3412.30202	0.60821
3411.28160	0.60825
3410.26117	0.60841
3409.24075	0.60865
3408.22032	0.60885
3407.19990	0.60895
3406.17947	0.60896
3405.15904	0.60893
3404.13862	0.60898
3403.11819	0.60908
3402.09777	0.60912
3401.07734	0.60909
3400.05692	0.60919
3399.03649	0.61000
3398.01607	0.61016
3396.99564	0.61017
3395.97522	0.61037
3394.95479	0.61050
3393.93437	0.61037
3392.91394	0.61021
3391.89352	0.61030
3390.87309	0.61048
3389.85267	0.61057
3388.83224	0.61068
3387.81182	0.61088
3386.79139	0.61102
3385.77097	0.61106
3384.75054	0.61114
3383.73011	0.61131
3382.70969	0.61146
3381.68926	0.61156
3380.66884	0.61170
3379.64841	0.61190
3378.62799	0.61208
3377.60756	0.61219
3376.58714	0.61231
3375.56671	0.61246
3374.54629	0.61259
3373.52586	0.61274
3372.50544	0.61298
3371.48501	0.61327
3370.46459	0.61350
3369.44416	0.61363
3368.42374	0.61371
3367.40331	0.61374
3366.38289	0.61383
3365.36246	0.61410
3364.34203	0.61436
3363.32161	0.61444
3362.30118	0.61439
3361.28076	0.61450
3360.26033	0.61484
3359.23991	0.61515
3358.21948	0.61531
3357.19906	0.61534
3356.17863	0.61534
3355.15821	0.61540
3354.13778	0.61560
3353.11736	0.61584
3352.09693	0.61605
3351.07651	0.61627
3350.05608	0.61648
3349.03566	0.61666
3348.01523	0.61677
3346.99481	0.61686
3345.97438	0.61697
3344.95396	0.61712
3343.93353	0.61730
3342.91310	0.61746
3341.89268	0.61758
3340.87225	0.61767
3339.85183	0.61775
3338.83140	0.61792
3337.81098	0.61822
3336.79055	0.61845
3335.77013	0.61847
3334.74970	0.61846
3333.72928	0.61859
3332.70885	0.61881
3331.68843	0.61898
3330.66800	0.61915
3329.64758	0.61943
3328.62715	0.61981
3327.60673	0.62016
3326.58630	0.62032
3325.56588	0.62027
3324.54545	0.62023
3323.52503	0.62038
3322.50460	0.62063
3321.48417	0.62085
3320.46375	0.62106
3319.44332	0.62132
3318.42290	0.62153
3317.40247	0.62169
3316.38205	0.62193
3315.36162	0.62224
3314.34120	0.62247
3313.32077	0.62257
3312.30035	0.62269
3311.27992	0.62287
3310.25950	0.62293
3309.23907	0.62297
3308.21865	0.62323
3307.19822	0.62365
3306.17780	0.62401
3305.15737	0.62424
3304.13695	0.62441
3303.11652	0.62451
3302.09609	0.62460
3301.07567	0.62480
3300.05524	0.62507
3299.03482	0.62539
3298.01439	0.62571
3296.99397	0.62592
3295.97354	0.62605
3294.95312	0.62630
3293.93269	0.62674
3292.91227	0.62712
3291.89184	0.62728
3290.87142	0.62754
3289.85099	0.62802
3288.83057	0.62849
3287.81014	0.62886
3286.78972	0.62932
3285.76929	0.63002
3284.74887	0.63085
3283.72844	0.63141
3282.70802	0.63150
3281.68759	0.63143
3280.66716	0.63148
3279.64674	0.63171
3278.62631	0.63203
3277.60589	0.63239
3276.58546	0.63265
3275.56504	0.63283
3274.54461	0.63331
3273.52419	0.63436
3272.50376	0.63554
3271.48334	0.63585
3270.46291	0.63501
3269.44249	0.63395
3268.42206	0.63332
3267.40164	0.63308
3266.38121	0.63306
3265.36079	0.63322
3264.34036	0.63345
3263.31994	0.63367
3262.29951	0.63387
3261.27909	0.63408
3260.25866	0.63435
3259.23823	0.63475
3258.21781	0.63517
3257.19738	0.63532
3256.17696	0.63514
3255.15653	0.63491
3254.13611	0.63473
3253.11568	0.63471
3252.09526	0.63493
3251.07483	0.63510
3250.05441	0.63514
3249.03398	0.63521
3248.01356	0.63535
3246.99313	0.63541
3245.97271	0.63527
3244.95228	0.63506
3243.93186	0.63503
3242.91143	0.63514
3241.89101	0.63519
3240.87058	0.63530
3239.85015	0.63542
3238.82973	0.63539
3237.80930	0.63528
3236.78888	0.63513
3235.76845	0.63498
3234.74803	0.63484
3233.72760	0.63466
3232.70718	0.63448
3231.68675	0.63440
3230.66633	0.63444
3229.64590	0.63450
3228.62548	0.63448
3227.60505	0.63439
3226.58463	0.63434
3225.56420	0.63429
3224.54378	0.63414
3223.52335	0.63400
3222.50293	0.63403
3221.48250	0.63419
3220.46208	0.63436
3219.44165	0.63442
3218.42122	0.63442
3217.40080	0.63446
3216.38037	0.63450
3215.35995	0.63450
3214.33952	0.63449
3213.31910	0.63461
3212.29867	0.63490
3211.27825	0.63503
3210.25782	0.63495
3209.23740	0.63487
3208.21697	0.63499
3207.19655	0.63520
3206.17612	0.63527
3205.15570	0.63533
3204.13527	0.63551
3203.11485	0.63581
3202.09442	0.63619
3201.07400	0.63653
3200.05357	0.63672
3199.03315	0.63669
3198.01272	0.63651
3196.99229	0.63641
3195.97187	0.63635
3194.95144	0.63625
3193.93102	0.63620
3192.91059	0.63638
3191.89017	0.63664
3190.86974	0.63669
3189.84932	0.63655
3188.82889	0.63646
3187.80847	0.63636
3186.78804	0.63618
3185.76762	0.63604
3184.74719	0.63594
3183.72677	0.63593
3182.70634	0.63602
3181.68592	0.63609
3180.66549	0.63603
3179.64507	0.63586
3178.62464	0.63550
3177.60421	0.63507
3176.58379	0.63497
3175.56336	0.63508
3174.54294	0.63517
3173.52251	0.63521
3172.50209	0.63512
3171.48166	0.63489
3170.46124	0.63465
3169.44081	0.63447
3168.42039	0.63437
3167.39996	0.63429
3166.37954	0.63425
3165.35911	0.63434
3164.33869	0.63438
3163.31826	0.63417
3162.29784	0.63380
3161.27741	0.63345
3160.25699	0.63324
3159.23656	0.63321
3158.21614	0.63333
3157.19571	0.63349
3156.17528	0.63354
3155.15486	0.63346
3154.13443	0.63339
3153.11401	0.63335
3152.09358	0.63325
3151.07316	0.63308
3150.05273	0.63291
3149.03231	0.63275
3148.01188	0.63266
3146.99146	0.63257
3145.97103	0.63245
3144.95061	0.63239
3143.93018	0.63236
3142.90976	0.63217
3141.88933	0.63185
3140.86891	0.63154
3139.84848	0.63132
3138.82806	0.63123
3137.80763	0.63119
3136.78721	0.63111
3135.76678	0.63091
3134.74635	0.63057
3133.72593	0.63018
3132.70550	0.62989
3131.68508	0.62984
3130.66465	0.62980
3129.64423	0.62964
3128.62380	0.62956
3127.60338	0.62958
3126.58295	0.62945
3125.56253	0.62920
3124.54210	0.62913
3123.52168	0.62922
3122.50125	0.62923
3121.48083	0.62920
3120.46040	0.62916
3119.43998	0.62905
3118.41955	0.62891
3117.39913	0.62882
3116.37870	0.62876
3115.35828	0.62880
3114.33785	0.62900
3113.31742	0.62912
3112.29700	0.62914
3111.27657	0.62930
3110.25615	0.62972
3109.23572	0.63055
3108.21530	0.63170
3107.19487	0.63224
3106.17445	0.63147
3105.15402	0.63003
3104.13360	0.62891
3103.11317	0.62819
3102.09275	0.62751
3101.07232	0.62694
3100.05190	0.62669
3099.03147	0.62663
3098.01105	0.62652
3096.99062	0.62623
3095.97020	0.62589
3094.94977	0.62568
3093.92934	0.62561
3092.90892	0.62547
3091.88849	0.62528
3090.86807	0.62517
3089.84764	0.62513
3088.82722	0.62509
3087.80679	0.62499
3086.78637	0.62481
3085.76594	0.62461
3084.74552	0.62441
3083.72509	0.62428
3082.70467	0.62418
3081.68424	0.62404
3080.66382	0.62393
3079.64339	0.62379
3078.62297	0.62359
3077.60254	0.62335
3076.58212	0.62312
3075.56169	0.62300
3074.54127	0.62297
3073.52084	0.62292
3072.50041	0.62279
3071.47999	0.62264
3070.45956	0.62256
3069.43914	0.62261
3068.41871	0.62264
3067.39829	0.62249
3066.37786	0.62221
3065.35744	0.62194
3064.33701	0.62165
3063.31659	0.62150
3062.29616	0.62162
3061.27574	0.62171
3060.25531	0.62162
3059.23489	0.62148
3058.21446	0.62138
3057.19404	0.62124
3056.17361	0.62099
3055.15319	0.62078
3054.13276	0.62074
3053.11234	0.62069
3052.09191	0.62053
3051.07148	0.62044
3050.05106	0.62045
3049.03063	0.62035
3048.01021	0.62002
3046.98978	0.61975
3045.96936	0.61968
3044.94893	0.61962
3043.92851	0.61948
3042.90808	0.61931
3041.88766	0.61918
3040.86723	0.61907
3039.84681	0.61895
3038.82638	0.61881
3037.80596	0.61873
3036.78553	0.61875
3035.76511	0.61872
3034.74468	0.61855
3033.72426	0.61840
3032.70383	0.61831
3031.68340	0.61800
3030.66298	0.61762
3029.64255	0.61750
3028.62213	0.61750
3027.60170	0.61742
3026.58128	0.61733
3025.56085	0.61720
3024.54043	0.61708
3023.52000	0.61700
3022.49958	0.61686
3021.47915	0.61666
3020.45873	0.61652
3019.43830	0.61650
3018.41788	0.61648
3017.39745	0.61637
3016.37703	0.61622
3015.35660	0.61616
3014.33618	0.61616
3013.31575	0.61600
3012.29533	0.61557
3011.27490	0.61520
3010.25447	0.61507
3009.23405	0.61503
3008.21362	0.61493
3007.19320	0.61476
3006.17277	0.61461
3005.15235	0.61449
3004.13192	0.61430
3003.11150	0.61406
3002.09107	0.61389
3001.07065	0.61378
3000.05022	0.61368
2999.02980	0.61353
2998.00937	0.61337
2996.98895	0.61319
2995.96852	0.61313
2994.94810	0.61307
2993.92767	0.61289
2992.90725	0.61269
2991.88682	0.61253
2990.86640	0.61234
2989.84597	0.61221
2988.82554	0.61217
2987.80512	0.61211
2986.78469	0.61200
2985.76427	0.61191
2984.74384	0.61184
2983.72342	0.61175
2982.70299	0.61168
2981.68257	0.61167
2980.66214	0.61159
2979.64172	0.61145
2978.62129	0.61136
2977.60087	0.61125
2976.58044	0.61112
2975.56002	0.61103
2974.53959	0.61100
2973.51917	0.61098
2972.49874	0.61091
2971.47832	0.61078
2970.45789	0.61065
2969.43746	0.61051
2968.41704	0.61036
2967.39661	0.61027
2966.37619	0.61023
2965.35576	0.61011
2964.33534	0.60995
2963.31491	0.60983
2962.29449	0.60972
2961.27406	0.60954
2960.25364	0.60932
2959.23321	0.60909
2958.21279	0.60887
2957.19236	0.60874
2956.17194	0.60865
2955.15151	0.60854
2954.13109	0.60843
2953.11066	0.60830
2952.09024	0.60813
2951.06981	0.60796
2950.04939	0.60786
2949.02896	0.60782
2948.00853	0.60775
2946.98811	0.60767
2945.96768	0.60760
2944.94726	0.60749
2943.92683	0.60735
2942.90641	0.60724
2941.88598	0.60716
2940.86556	0.60703
2939.84513	0.60683
2938.82471	0.60667
2937.80428	0.60652
2936.78386	0.60637
2935.76343	0.60625
2934.74301	0.60618
2933.72258	0.60610
2932.70216	0.60593
2931.68173	0.60573
2930.66131	0.60563
2929.64088	0.60562
2928.62046	0.60552
2927.60003	0.60532
2926.57960	0.60511
2925.55918	0.60496
2924.53875	0.60483
2923.51833	0.60467
2922.49790	0.60442
2921.47748	0.60422
2920.45705	0.60413
2919.43663	0.60405
2918.41620	0.60393
2917.39578	0.60381
2916.37535	0.60366
2915.35493	0.60347
2914.33450	0.60326
2913.31408	0.60305
2912.29365	0.60289
2911.27323	0.60280
2910.25280	0.60275
2909.23238	0.60268
2908.21195	0.60259
2907.19152	0.60250
2906.17110	0.60238
2905.15067	0.60224
2904.13025	0.60207
2903.10982	0.60192
2902.08940	0.60178
2901.06897	0.60159
2900.04855	0.60138
2899.02812	0.60122
2898.00770	0.60117
2896.98727	0.60115
2895.96685	0.60108
2894.94642	0.60097
2893.92600	0.60082
2892.90557	0.60065
2891.88515	0.60052
2890.86472	0.60043
2889.84430	0.60035
2888.82387	0.60020
2887.80345	0.60004
2886.78302	0.59998
2885.76259	0.59994
2884.74217	0.59978
2883.72174	0.59957
2882.70132	0.59943
2881.68089	0.59935
2880.66047	0.59925
2879.64004	0.59912
2878.61962	0.59897
2877.59919	0.59891
2876.57877	0.59896
2875.55834	0.59897
2874.53792	0.59882
2873.51749	0.59861
2872.49707	0.59847
2871.47664	0.59842
2870.45622	0.59837
2869.43579	0.59829
2868.41537	0.59820
2867.39494	0.59812
2866.37452	0.59803
2865.35409	0.59790
2864.33366	0.59775
2863.31324	0.59758
2862.29281	0.59742
2861.27239	0.59730
2860.25196	0.59722
2859.23154	0.59715
2858.21111	0.59708
2857.19069	0.59706
2856.17026	0.59703
2855.14984	0.59695
2854.12941	0.59686
2853.10899	0.59678
2852.08856	0.59666
2851.06814	0.59655
2850.04771	0.59645
2849.02729	0.59636
2848.00686	0.59626
2846.98644	0.59617
2845.96601	0.59603
2844.94558	0.59593
2843.92516	0.59592
2842.90473	0.59592
2841.88431	0.59586
2840.86388	0.59583
2839.84346	0.59583
2838.82303	0.59578
2837.80261	0.59563
2836.78218	0.59545
2835.76176	0.59530
2834.74133	0.59513
2833.72091	0.59490
2832.70048	0.59473
2831.68006	0.59460
2830.65963	0.59445
2829.63921	0.59432
2828.61878	0.59424
2827.59836	0.59417
2826.57793	0.59406
2825.55751	0.59395
2824.53708	0.59383
2823.51665	0.59367
2822.49623	0.59355
2821.47580	0.59344
2820.45538	0.59334
2819.43495	0.59328
2818.41453	0.59322
2817.39410	0.59313
2816.37368	0.59308
2815.35325	0.59303
2814.33283	0.59292
2813.31240	0.59284
2812.29198	0.59284
2811.27155	0.59286
2810.25113	0.59278
2809.23070	0.59264
2808.21028	0.59250
2807.18985	0.59240
2806.16943	0.59236
2805.14900	0.59229
2804.12858	0.59216
2803.10815	0.59203
2802.08772	0.59200
2801.06730	0.59204
2800.04687	0.59203
2799.02645	0.59195
2798.00602	0.59185
2796.98560	0.59177
2795.96517	0.59173
2794.94475	0.59170
2793.92432	0.59161
2792.90390	0.59149
2791.88347	0.59144
2790.86305	0.59148
2789.84262	0.59150
2788.82220	0.59147
2787.80177	0.59143
2786.78135	0.59140
2785.76092	0.59133
2784.74050	0.59121
2783.72007	0.59108
2782.69964	0.59098
2781.67922	0.59090
2780.65879	0.59081
2779.63837	0.59073
2778.61794	0.59070
2777.59752	0.59072
2776.57709	0.59072
2775.55667	0.59067
2774.53624	0.59062
2773.51582	0.59061
2772.49539	0.59056
2771.47497	0.59047
2770.45454	0.59041
2769.43412	0.59038
2768.41369	0.59035
2767.39327	0.59029
2766.37284	0.59019
2765.35242	0.59012
2764.33199	0.59007
2763.31157	0.59003
2762.29114	0.59001
2761.27071	0.58998
2760.25029	0.58989
2759.22986	0.58981
2758.20944	0.58978
2757.18901	0.58976
2756.16859	0.58973
2755.14816	0.58965
2754.12774	0.58956
2753.10731	0.58953
2752.08689	0.58951
2751.06646	0.58950
2750.04604	0.58953
2749.02561	0.58953
2748.00519	0.58950
2746.98476	0.58945
2745.96434	0.58939
2744.94391	0.58937
2743.92349	0.58937
2742.90306	0.58935
2741.88264	0.58932
2740.86221	0.58932
2739.84178	0.58932
2738.82136	0.58931
2737.80093	0.58927
2736.78051	0.58929
2735.76008	0.58932
2734.73966	0.58929
2733.71923	0.58923
2732.69881	0.58915
2731.67838	0.58911
2730.65796	0.58909
2729.63753	0.58906
2728.61711	0.58904
2727.59668	0.58907
2726.57626	0.58914
2725.55583	0.58917
2724.53541	0.58915
2723.51498	0.58913
2722.49456	0.58911
2721.47413	0.58908
2720.45370	0.58904
2719.43328	0.58900
2718.41285	0.58897
2717.39243	0.58895
2716.37200	0.58896
2715.35158	0.58896
2714.33115	0.58896
2713.31073	0.58902
2712.29030	0.58908
2711.26988	0.58912
2710.24945	0.58914
2709.22903	0.58916
2708.20860	0.58913
2707.18818	0.58912
2706.16775	0.58914
2705.14733	0.58918
2704.12690	0.58921
2703.10648	0.58920
2702.08605	0.58919
2701.06563	0.58920
2700.04520	0.58917
2699.02477	0.58917
2698.00435	0.58920
2696.98392	0.58922
2695.96350	0.58925
2694.94307	0.58930
2693.92265	0.58935
2692.90222	0.58941
2691.88180	0.58942
2690.86137	0.58941
2689.84095	0.58945
2688.82052	0.58952
2687.80010	0.58953
2686.77967	0.58951
2685.75925	0.58955
2684.73882	0.58958
2683.71840	0.58958
2682.69797	0.58966
2681.67755	0.58983
2680.65712	0.58996
2679.63670	0.59000
2678.61627	0.59000
2677.59584	0.59001
2676.57542	0.59000
2675.55499	0.59001
2674.53457	0.59007
2673.51414	0.59016
2672.49372	0.59024
2671.47329	0.59032
2670.45287	0.59044
2669.43244	0.59058
2668.41202	0.59071
2667.39159	0.59090
2666.37117	0.59116
2665.35074	0.59145
2664.33032	0.59181
2663.30989	0.59231
2662.28947	0.59298
2661.26904	0.59382
2660.24862	0.59484
2659.22819	0.59600
2658.20776	0.59727
2657.18734	0.59863
2656.16691	0.60009
2655.14649	0.60169
2654.12606	0.60334
2653.10564	0.60497
2652.08521	0.60662
2651.06479	0.60837
2650.04436	0.61017
2649.02394	0.61198
2648.00351	0.61382
2646.98309	0.61564
2645.96266	0.61746
2644.94224	0.61935
2643.92181	0.62127
2642.90139	0.62310
2641.88096	0.62488
2640.86054	0.62671
2639.84011	0.62858
2638.81969	0.63041
2637.79926	0.63218
2636.77883	0.63392
2635.75841	0.63568
2634.73798	0.63744
2633.71756	0.63913
2632.69713	0.64081
2631.67671	0.64252
2630.65628	0.64426
2629.63586	0.64599
2628.61543	0.64768
2627.59501	0.64929
2626.57458	0.65086
2625.55416	0.65241
2624.53373	0.65396
2623.51331	0.65550
2622.49288	0.65701
2621.47246	0.65846
2620.45203	0.65985
2619.43161	0.66126
2618.41118	0.66269
2617.39076	0.66409
2616.37033	0.66547
2615.34990	0.66682
2614.32948	0.66813
2613.30905	0.66942
2612.28863	0.67071
2611.26820	0.67199
2610.24778	0.67325
2609.22735	0.67446
2608.20693	0.67561
2607.18650	0.67673
2606.16608	0.67785
2605.14565	0.67897
2604.12523	0.68010
2603.10480	0.68121
2602.08438	0.68228
2601.06395	0.68331
2600.04353	0.68434
2599.02310	0.68535
2598.00268	0.68632
2596.98225	0.68727
2595.96182	0.68820
2594.94140	0.68911
2593.92097	0.68997
2592.90055	0.69084
2591.88012	0.69175
2590.85970	0.69262
2589.83927	0.69342
2588.81885	0.69422
2587.79842	0.69503
2586.77800	0.69579
2585.75757	0.69652
2584.73715	0.69726
2583.71672	0.69803
2582.69630	0.69878
2581.67587	0.69949
2580.65545	0.70015
2579.63502	0.70078
2578.61460	0.70141
2577.59417	0.70206
2576.57375	0.70268
2575.55332	0.70322
2574.53289	0.70377
2573.51247	0.70436
2572.49204	0.70495
2571.47162	0.70551
2570.45119	0.70603
2569.43077	0.70653
2568.41034	0.70702
2567.38992	0.70753
2566.36949	0.70801
2565.34907	0.70846
2564.32864	0.70895
2563.30822	0.70944
2562.28779	0.70987
2561.26737	0.71029
2560.24694	0.71069
2559.22652	0.71109
2558.20609	0.71150
2557.18567	0.71189
2556.16524	0.71222
2555.14482	0.71255
2554.12439	0.71290
2553.10396	0.71329
2552.08354	0.71365
2551.06311	0.71395
2550.04269	0.71420
2549.02226	0.71446
2548.00184	0.71476
2546.98141	0.71507
2545.96099	0.71533
2544.94056	0.71557
2543.92014	0.71580
2542.89971	0.71600
2541.87929	0.71622
2540.85886	0.71648
2539.83844	0.71672
2538.81801	0.71693
2537.79759	0.71711
2536.77716	0.71727
2535.75674	0.71741
2534.73631	0.71757
2533.71588	0.71782
2532.69546	0.71810
2531.67503	0.71830
2530.65461	0.71842
2529.63418	0.71854
2528.61376	0.71867
2527.59333	0.71879
2526.57291	0.71892
2525.55248	0.71906
2524.53206	0.71917
2523.51163	0.71927
2522.49121	0.71935
2521.47078	0.71937
2520.45036	0.71939
2519.42993	0.71947
2518.40951	0.71957
2517.38908	0.71965
2516.36866	0.71973
2515.34823	0.71977
2514.32781	0.71981
2513.30738	0.71987
2512.28695	0.71993
2511.26653	0.71994
2510.24610	0.71996
2509.22568	0.72000
2508.20525	0.72005
2507.18483	0.72009
2506.16440	0.72009
2505.14398	0.72005
2504.12355	0.72003
2503.10313	0.72007
2502.08270	0.72013
2501.06228	0.72018
2500.04185	0.72021
2499.02143	0.72022
2498.00100	0.72024
2496.98058	0.72022
2495.96015	0.72018
2494.93973	0.72018
2493.91930	0.72022
2492.89888	0.72022
2491.87845	0.72028
2490.85802	0.72041
2489.83760	0.72048
2488.81717	0.72045
2487.79675	0.72042
2486.77632	0.72046
2485.75590	0.72046
2484.73547	0.72041
2483.71505	0.72037
2482.69462	0.72035
2481.67420	0.72032
2480.65377	0.72029
2479.63335	0.72025
2478.61292	0.72019
2477.59250	0.72015
2476.57207	0.72012
2475.55165	0.72010
2474.53122	0.72009
2473.51080	0.72006
2472.49037	0.72000
2471.46994	0.71992
2470.44952	0.71983
2469.42909	0.71977
2468.40867	0.71981
2467.38824	0.71987
2466.36782	0.71992
2465.34739	0.71997
2464.32697	0.72000
2463.30654	0.72001
2462.28612	0.72007
2461.26569	0.72019
2460.24527	0.72034
2459.22484	0.72051
2458.20442	0.72075
2457.18399	0.72108
2456.16357	0.72144
2455.14314	0.72174
2454.12272	0.72205
2453.10229	0.72243
2452.08187	0.72281
2451.06144	0.72316
2450.04101	0.72348
2449.02059	0.72379
2448.00016	0.72412
2446.97974	0.72443
2445.95931	0.72469
2444.93889	0.72491
2443.91846	0.72516
2442.89804	0.72543
2441.87761	0.72564
2440.85719	0.72578
2439.83676	0.72592
2438.81634	0.72605
2437.79591	0.72614
2436.77549	0.72622
2435.75506	0.72631
2434.73464	0.72637
2433.71421	0.72637
2432.69379	0.72634
2431.67336	0.72633
2430.65294	0.72632
2429.63251	0.72628
2428.61208	0.72622
2427.59166	0.72617
2426.57123	0.72610
2425.55081	0.72596
2424.53038	0.72576
2423.50996	0.72557
2422.48953	0.72544
2421.46911	0.72533
2420.44868	0.72511
2419.42826	0.72486
2418.40783	0.72469
2417.38741	0.72458
2416.36698	0.72446
2415.34656	0.72433
2414.32613	0.72419
2413.30571	0.72406
2412.28528	0.72398
2411.26486	0.72395
2410.24443	0.72402
2409.22401	0.72419
2408.20358	0.72441
2407.18315	0.72460
2406.16273	0.72475
2405.14230	0.72487
2404.12188	0.72500
2403.10145	0.72521
2402.08103	0.72557
2401.06060	0.72610
2400.04018	0.72681
2399.01975	0.72771
2397.99933	0.72883
2396.97890	0.73014
2395.95848	0.73167
2394.93805	0.73344
2393.91763	0.73543
2392.89720	0.73763
2391.87678	0.74003
2390.85635	0.74264
2389.83593	0.74550
2388.81550	0.74861
2387.79507	0.75198
2386.77465	0.75562
2385.75422	0.75954
2384.73380	0.76372
2383.71337	0.76813
2382.69295	0.77280
2381.67252	0.77773
2380.65210	0.78289
2379.63167	0.78824
2378.61125	0.79374
2377.59082	0.79932
2376.57040	0.80483
2375.54997	0.81018
2374.52955	0.81535
2373.50912	0.82040
2372.48870	0.82529
2371.46827	0.82966
2370.44785	0.83294
2369.42742	0.83471
2368.40700	0.83504
2367.38657	0.83416
2366.36614	0.83189
2365.34572	0.82789
2364.32529	0.82236
2363.30487	0.81636
2362.28444	0.81093
2361.26402	0.80629
2360.24359	0.80188
2359.22317	0.79710
2358.20274	0.79172
2357.18232	0.78599
2356.16189	0.78021
2355.14147	0.77435
2354.12104	0.76828
2353.10062	0.76229
2352.08019	0.75681
2351.05977	0.75188
2350.03934	0.74752
2349.01892	0.74409
2347.99849	0.74153
2346.97807	0.73931
2345.95764	0.73706
2344.93721	0.73474
2343.91679	0.73207
2342.89636	0.72873
2341.87594	0.72492
2340.85551	0.72104
2339.83509	0.71734
2338.81466	0.71387
2337.79424	0.71055
2336.77381	0.70713
2335.75339	0.70360
2334.73296	0.70059
2333.71254	0.69840
2332.69211	0.69671
2331.67169	0.69507
2330.65126	0.69323
2329.63084	0.69110
2328.61041	0.68890
2327.58999	0.68727
2326.56956	0.68683
2325.54913	0.68786
2324.52871	0.69028
2323.50828	0.69363
2322.48786	0.69714
2321.46743	0.70010
2320.44701	0.70234
2319.42658	0.70412
2318.40616	0.70578
2317.38573	0.70743
2316.36531	0.70908
2315.34488	0.71077
2314.32446	0.71255
2313.30403	0.71430
2312.28361	0.71589
2311.26318	0.71724
2310.24276	0.71844
2309.22233	0.71958
2308.20191	0.72071
2307.18148	0.72181
2306.16106	0.72290
2305.14063	0.72408
2304.12020	0.72537
2303.09978	0.72672
2302.07935	0.72807
2301.05893	0.72941
2300.03850	0.73071
2299.01808	0.73193
2297.99765	0.73307
2296.97723	0.73411
2295.95680	0.73509
2294.93638	0.73615
2293.91595	0.73739
2292.89553	0.73887
2291.87510	0.74050
2290.85468	0.74222
2289.83425	0.74400
2288.81383	0.74587
2287.79340	0.74783
2286.77298	0.74986
2285.75255	0.75195
2284.73213	0.75415
2283.71170	0.75641
2282.69127	0.75867
2281.67085	0.76084
2280.65042	0.76287
2279.63000	0.76478
2278.60957	0.76658
2277.58915	0.76830
2276.56872	0.76995
2275.54830	0.77152
2274.52787	0.77300
2273.50745	0.77442
2272.48702	0.77579
2271.46660	0.77709
2270.44617	0.77834
2269.42575	0.77956
2268.40532	0.78075
2267.38490	0.78193
2266.36447	0.78304
2265.34405	0.78406
2264.32362	0.78499
2263.30319	0.78585
2262.28277	0.78667
2261.26234	0.78750
2260.24192	0.78834
2259.22149	0.78919
2258.20107	0.79010
2257.18064	0.79106
2256.16022	0.79203
2255.13979	0.79292
2254.11937	0.79372
2253.09894	0.79440
2252.07852	0.79496
2251.05809	0.79544
2250.03767	0.79581
2249.01724	0.79626
2247.99682	0.79698
2246.97639	0.79773
2245.95597	0.79847
2244.93554	0.79919
2243.91512	0.79990
2242.89469	0.80065
2241.87426	0.80148
2240.85384	0.80227
2239.83341	0.80301
2238.81299	0.80378
2237.79256	0.80460
2236.77214	0.80537
2235.75171	0.80611
2234.73129	0.80684
2233.71086	0.80753
2232.69044	0.80821
2231.67001	0.80891
2230.64959	0.80960
2229.62916	0.81026
2228.60874	0.81092
2227.58831	0.81158
2226.56789	0.81225
2225.54746	0.81293
2224.52704	0.81359
2223.50661	0.81417
2222.48619	0.81474
2221.46576	0.81534
2220.44533	0.81593
2219.42491	0.81649
2218.40448	0.81706
2217.38406	0.81759
2216.36363	0.81807
2215.34321	0.81852
2214.32278	0.81896
2213.30236	0.81940
2212.28193	0.81985
2211.26151	0.82035
2210.24108	0.82088
2209.22066	0.82138
2208.20023	0.82184
2207.17981	0.82230
2206.15938	0.82276
2205.13896	0.82323
2204.11853	0.82371
2203.09811	0.82417
2202.07768	0.82466
2201.05725	0.82520
2200.03683	0.82569
2199.01640	0.82611
2197.99598	0.82656
2196.97555	0.82706
2195.95513	0.82761
2194.93470	0.82818
2193.91428	0.82874
2192.89385	0.82926
2191.87343	0.82981
2190.85300	0.83046
2189.83258	0.83117
2188.81215	0.83187
2187.79173	0.83255
2186.77130	0.83323
2185.75088	0.83393
2184.73045	0.83466
2183.71003	0.83536
2182.68960	0.83603
2181.66918	0.83657
2180.64875	0.83685
2179.62832	0.83692
2178.60790	0.83698
2177.58747	0.83722
2176.56705	0.83763
2175.54662	0.83801
2174.52620	0.83819
2173.50577	0.83824
2172.48535	0.83835
2171.46492	0.83855
2170.44450	0.83887
2169.42407	0.83941
2168.40365	0.84020
2167.38322	0.84114
2166.36280	0.84219
2165.34237	0.84332
2164.32195	0.84446
2163.30152	0.84562
2162.28110	0.84686
2161.26067	0.84816
2160.24025	0.84951
2159.21982	0.85066
2158.19939	0.85085
2157.17897	0.84980
2156.15854	0.84803
2155.13812	0.84608
2154.11769	0.84419
2153.09727	0.84249
2152.07684	0.84099
2151.05642	0.83967
2150.03599	0.83849
2149.01557	0.83741
2147.99514	0.83637
2146.97472	0.83532
2145.95429	0.83423
2144.93387	0.83303
2143.91344	0.83173
2142.89302	0.83041
2141.87259	0.82914
2140.85217	0.82792
2139.83174	0.82670
2138.81131	0.82543
2137.79089	0.82422
2136.77046	0.82309
2135.75004	0.82180
2134.72961	0.82024
2133.70919	0.81842
2132.68876	0.81626
2131.66834	0.81388
2130.64791	0.81161
2129.62749	0.80959
2128.60706	0.80776
2127.58664	0.80602
2126.56621	0.80447
2125.54579	0.80310
2124.52536	0.80187
2123.50494	0.80080
2122.48451	0.79986
2121.46409	0.79899
2120.44366	0.79823
2119.42324	0.79762
2118.40281	0.79711
2117.38238	0.79671
2116.36196	0.79655
2115.34153	0.79656
2114.32111	0.79663
2113.30068	0.79685
2112.28026	0.79720
2111.25983	0.79755
2110.23941	0.79787
2109.21898	0.79821
2108.19856	0.79858
2107.17813	0.79893
2106.15771	0.79923
2105.13728	0.79953
2104.11686	0.79987
2103.09643	0.80020
2102.07601	0.80051
2101.05558	0.80080
2100.03516	0.80112
2099.01473	0.80149
2097.99431	0.80189
2096.97388	0.80221
2095.95345	0.80238
2094.93303	0.80233
2093.91260	0.80199
2092.89218	0.80144
2091.87175	0.80083
2090.85133	0.80032
2089.83090	0.80006
2088.81048	0.80018
2087.79005	0.80054
2086.76963	0.80089
2085.74920	0.80132
2084.72878	0.80193
2083.70835	0.80261
2082.68793	0.80326
2081.66750	0.80389
2080.64708	0.80460
2079.62665	0.80546
2078.60623	0.80639
2077.58580	0.80730
2076.56537	0.80821
2075.54495	0.80913
2074.52452	0.81000
2073.50410	0.81079
2072.48367	0.81158
2071.46325	0.81239
2070.44282	0.81319
2069.42240	0.81401
2068.40197	0.81488
2067.38155	0.81563
2066.36112	0.81596
2065.34070	0.81611
2064.32027	0.81667
2063.29985	0.81778
2062.27942	0.81871
2061.25900	0.81925
2060.23857	0.81973
2059.21815	0.82030
2058.19772	0.82098
2057.17730	0.82172
2056.15687	0.82259
2055.13644	0.82364
2054.11602	0.82468
2053.09559	0.82552
2052.07517	0.82649
2051.05474	0.82823
2050.03432	0.83069
2049.01389	0.83312
2047.99347	0.83495
2046.97304	0.83625
2045.95262	0.83730
2044.93219	0.83832
2043.91177	0.83920
2042.89134	0.83978
2041.87092	0.84020
2040.85049	0.84084
2039.83007	0.84197
2038.80964	0.84323
2037.78922	0.84418
2036.76879	0.84502
2035.74837	0.84595
2034.72794	0.84681
2033.70751	0.84744
2032.68709	0.84785
2031.66666	0.84808
2030.64624	0.84819
2029.62581	0.84820
2028.60539	0.84820
2027.58496	0.84819
2026.56454	0.84815
2025.54411	0.84808
2024.52369	0.84804
2023.50326	0.84800
2022.48284	0.84793
2021.46241	0.84786
2020.44199	0.84786
2019.42156	0.84777
2018.40114	0.84716
2017.38071	0.84621
2016.36029	0.84589
2015.33986	0.84643
2014.31943	0.84691
2013.29901	0.84669
2012.27858	0.84635
2011.25816	0.84623
2010.23773	0.84619
2009.21731	0.84617
2008.19688	0.84612
2007.17646	0.84586
2006.15603	0.84521
2005.13561	0.84419
2004.11518	0.84301
2003.09476	0.84189
2002.07433	0.84096
2001.05391	0.84020
2000.03348	0.83951
1999.01306	0.83890
1997.99263	0.83852
1996.97221	0.83840
1995.95178	0.83861
1994.93136	0.83913
1993.91093	0.83902
1992.89050	0.83746
1991.87008	0.83620
1990.84965	0.83700
1989.82923	0.83863
1988.80880	0.83887
1987.78838	0.83850
1986.76795	0.83910
1985.74753	0.83999
1984.72710	0.84055
1983.70668	0.84113
1982.68625	0.84191
1981.66583	0.84283
1980.64540	0.84397
1979.62498	0.84546
1978.60455	0.84715
1977.58413	0.84846
1976.56370	0.84894
1975.54328	0.84868
1974.52285	0.84807
1973.50243	0.84739
1972.48200	0.84676
1971.46157	0.84631
1970.44115	0.84611
1969.42072	0.84558
1968.40030	0.84405
1967.37987	0.84193
1966.35945	0.84098
1965.33902	0.84135
1964.31860	0.84153
1963.29817	0.84077
1962.27775	0.83968
1961.25732	0.83864
1960.23690	0.83771
1959.21647	0.83673
1958.19605	0.83546
1957.17562	0.83388
1956.15520	0.83217
1955.13477	0.83059
1954.11435	0.82943
1953.09392	0.82865
1952.07349	0.82779
1951.05307	0.82680
1950.03264	0.82590
1949.01222	0.82509
1947.99179	0.82405
1946.97137	0.82278
1945.95094	0.82210
1944.93052	0.82176
1943.91009	0.81999
1942.88967	0.81637
1941.86924	0.81429
1940.84882	0.81512
1939.82839	0.81583
1938.80797	0.81471
1937.78754	0.81319
1936.76712	0.81204
1935.74669	0.81099
1934.72627	0.80987
1933.70584	0.80862
1932.68542	0.80738
1931.66499	0.80632
1930.64456	0.80529
1929.62414	0.80412
1928.60371	0.80285
1927.58329	0.80175
1926.56286	0.80119
1925.54244	0.80071
1924.52201	0.79888
1923.50159	0.79534
1922.48116	0.79271
1921.46074	0.79378
1920.44031	0.79571
1919.41989	0.79400
1918.39946	0.78937
1917.37904	0.78713
1916.35861	0.78861
1915.33819	0.78991
1914.31776	0.78910
1913.29734	0.78816
1912.27691	0.78758
1911.25649	0.78640
1910.23606	0.78446
1909.21563	0.78281
1908.19521	0.78227
1907.17478	0.78208
1906.15436	0.78172
1905.13393	0.78109
1904.11351	0.78010
1903.09308	0.77918
1902.07266	0.77843
1901.05223	0.77767
1900.03181	0.77689
1899.01138	0.77629
1897.99096	0.77585
1896.97053	0.77488
1895.95011	0.77296
1894.92968	0.77095
1893.90926	0.77067
1892.88883	0.77207
1891.86841	0.77238
1890.84798	0.76996
1889.82755	0.76590
1888.80713	0.76382
1887.78670	0.76534
1886.76628	0.76648
1885.74585	0.76540
1884.72543	0.76372
1883.70500	0.76269
1882.68458	0.76227
1881.66415	0.76176
1880.64373	0.76081
1879.62330	0.75970
1878.60288	0.75880
1877.58245	0.75813
1876.56203	0.75740
1875.54160	0.75651
1874.52118	0.75578
1873.50075	0.75575
1872.48033	0.75668
1871.45990	0.75690
1870.43948	0.75418
1869.41905	0.74882
1868.39862	0.74486
1867.37820	0.74483
1866.35777	0.74641
1865.33735	0.74739
1864.31692	0.74757
1863.29650	0.74695
1862.27607	0.74588
1861.25565	0.74487
1860.23522	0.74408
1859.21480	0.74326
1858.19437	0.74233
1857.17395	0.74156
1856.15352	0.74090
1855.13310	0.74005
1854.11267	0.73908
1853.09225	0.73824
1852.07182	0.73766
1851.05140	0.73724
1850.03097	0.73639
1849.01055	0.73502
1847.99012	0.73457
1846.96969	0.73566
1845.94927	0.73495
1844.92884	0.72914
1843.90842	0.72239
1842.88799	0.72210
1841.86757	0.72572
1840.84714	0.72746
1839.82672	0.72683
1838.80629	0.72521
1837.78587	0.72311
1836.76544	0.72142
1835.74502	0.72078
1834.72459	0.72077
1833.70417	0.72120
1832.68374	0.72177
1831.66332	0.72005
1830.64289	0.71460
1829.62247	0.70939
1828.60204	0.70994
1827.58161	0.71375
1826.56119	0.71379
1825.54076	0.70969
1824.52034	0.70651
1823.49991	0.70686
1822.47949	0.70812
1821.45906	0.70829
1820.43864	0.70777
1819.41821	0.70665
1818.39779	0.70458
1817.37736	0.70182
1816.35694	0.69916
1815.33651	0.69709
1814.31609	0.69532
1813.29566	0.69312
1812.27524	0.68996
1811.25481	0.68639
1810.23439	0.68387
1809.21396	0.68304
1808.19354	0.68282
1807.17311	0.68231
1806.15268	0.68196
1805.13226	0.68200
1804.11183	0.68177
1803.09141	0.68059
1802.07098	0.67830
1801.05056	0.67553
1800.03013	0.67339
1799.00971	0.67275
1797.98928	0.67353
1796.96886	0.67460
1795.94843	0.67540
1794.92801	0.67548
1793.90758	0.67330
1792.88716	0.66830
1791.86673	0.66379
1790.84631	0.66315
1789.82588	0.66558
1788.80546	0.66835
1787.78503	0.66974
1786.76461	0.66935
1785.74418	0.66779
1784.72375	0.66643
1783.70333	0.66634
1782.68290	0.66649
1781.66248	0.66514
1780.64205	0.66292
1779.62163	0.66205
1778.60120	0.66315
1777.58078	0.66478
1776.56035	0.66591
1775.53993	0.66633
1774.51950	0.66502
1773.49908	0.66057
1772.47865	0.65461
1771.45823	0.65191
1770.43780	0.65385
1769.41738	0.65611
1768.39695	0.65576
1767.37653	0.65501
1766.35610	0.65648
1765.33567	0.65916
1764.31525	0.66022
1763.29482	0.65817
1762.27440	0.65436
1761.25397	0.65236
1760.23355	0.65405
1759.21312	0.65637
1758.19270	0.65581
1757.17227	0.65340
1756.15185	0.65266
1755.13142	0.65522
1754.11100	0.65869
1753.09057	0.65949
1752.07015	0.65671
1751.04972	0.65253
1750.02930	0.64978
1749.00887	0.64876
1747.98845	0.64854
1746.96802	0.64971
1745.94760	0.65181
1744.92717	0.65308
1743.90674	0.65327
1742.88632	0.65361
1741.86589	0.65386
1740.84547	0.65223
1739.82504	0.64967
1738.80462	0.65073
1737.78419	0.65654
1736.76377	0.66115
1735.74334	0.65864
1734.72292	0.64947
1733.70249	0.64168
1732.68207	0.64253
1731.66164	0.64765
1730.64122	0.65007
1729.62079	0.64966
1728.60037	0.65003
1727.57994	0.65191
1726.55952	0.65335
1725.53909	0.65341
1724.51867	0.65260
1723.49824	0.65229
1722.47781	0.65415
1721.45739	0.65779
1720.43696	0.65975
1719.41654	0.65646
1718.39611	0.64892
1717.37569	0.64283
1716.35526	0.64143
1715.33484	0.64211
1714.31441	0.64311
1713.29399	0.64557
1712.27356	0.64867
1711.25314	0.65045
1710.23271	0.65111
1709.21229	0.65187
1708.19186	0.65197
1707.17144	0.64959
1706.15101	0.64580
1705.13059	0.64492
1704.11016	0.64918
1703.08974	0.65482
1702.06931	0.65438
1701.04888	0.64547
1700.02846	0.63657
1699.00803	0.63796
1697.98761	0.64384
1696.96718	0.64236
1695.94676	0.63492
1694.92633	0.63210
1693.90591	0.63724
1692.88548	0.64351
1691.86506	0.64568
1690.84463	0.64433
1689.82421	0.64267
1688.80378	0.64377
1687.78336	0.64776
1686.76293	0.64992
1685.74251	0.64427
1684.72208	0.63129
1683.70166	0.62162
1682.68123	0.62391
1681.66080	0.63131
1680.64038	0.63584
1679.61995	0.63785
1678.59953	0.64044
1677.57910	0.64180
1676.55868	0.63854
1675.53825	0.63271
1674.51783	0.63083
1673.49740	0.63485
1672.47698	0.63856
1671.45655	0.63712
1670.43613	0.63135
1669.41570	0.62530
1668.39528	0.62364
1667.37485	0.62791
1666.35443	0.63411
1665.33400	0.63719
1664.31358	0.63524
1663.29315	0.62996
1662.27273	0.62575
1661.25230	0.62571
1660.23187	0.62849
1659.21145	0.63170
1658.19102	0.63544
1657.17060	0.64005
1656.15017	0.64271
1655.12975	0.63776
1654.10932	0.62283
1653.08890	0.60704
1652.06847	0.60577
1651.04805	0.61869
1650.02762	0.63138
1649.00720	0.63383
1647.98677	0.62638
1646.96635	0.61646
1645.94592	0.61181
1644.92550	0.61470
1643.90507	0.62082
1642.88465	0.62494
1641.86422	0.62636
1640.84380	0.62747
1639.82337	0.62941
1638.80294	0.63069
1637.78252	0.62816
1636.76209	0.62013
1635.74167	0.61032
1634.72124	0.60637
1633.70082	0.61124
1632.68039	0.61875
1631.65997	0.62318
1630.63954	0.62402
1629.61912	0.62238
1628.59869	0.61949
1627.57827	0.61801
1626.55784	0.61945
1625.53742	0.62075
1624.51699	0.61781
1623.49657	0.61212
1622.47614	0.60989
1621.45572	0.61341
1620.43529	0.61886
1619.41486	0.62137
1618.39444	0.61808
1617.37401	0.60994
1616.35359	0.60294
1615.33316	0.60296
1614.31274	0.60776
1613.29231	0.61151
1612.27189	0.61244
1611.25146	0.61157
1610.23104	0.60984
1609.21061	0.60803
1608.19019	0.60700
1607.16976	0.60694
1606.14934	0.60743
1605.12891	0.60792
1604.10849	0.60784
1603.08806	0.60723
1602.06764	0.60679
1601.04721	0.60695
1600.02679	0.60759
1599.00636	0.60836
1597.98593	0.60884
1596.96551	0.60876
1595.94508	0.60817
1594.92466	0.60752
1593.90423	0.60730
1592.88381	0.60748
1591.86338	0.60744
1590.84296	0.60677
1589.82253	0.60575
1588.80211	0.60479
1587.78168	0.60405
1586.76126	0.60338
1585.74083	0.60266
1584.72041	0.60187
1583.69998	0.60107
1582.67956	0.60047
1581.65913	0.60062
1580.63871	0.60213
1579.61828	0.60440
1578.59786	0.60450
1577.57743	0.59914
1576.55700	0.58983
1575.53658	0.58430
1574.51615	0.58796
1573.49573	0.59605
1572.47530	0.60125
1571.45488	0.60022
1570.43445	0.59376
1569.41403	0.58718
1568.39360	0.58683
1567.37318	0.59117
1566.35275	0.59373
1565.33233	0.59316
1564.31190	0.59422
1563.29148	0.60015
1562.27105	0.60651
1561.25063	0.60488
1560.23020	0.59072
1559.20978	0.57109
1558.18935	0.56295
1557.16892	0.57137
1556.14850	0.58366
1555.12807	0.58866
1554.10765	0.58784
1553.08722	0.58841
1552.06680	0.59058
1551.04637	0.58994
1550.02595	0.58713
1549.00552	0.58725
1547.98510	0.59142
1546.96467	0.59485
1545.94425	0.59462
1544.92382	0.59276
1543.90340	0.59232
1542.88297	0.59208
1541.86255	0.58771
1540.84212	0.57804
1539.82170	0.56776
1538.80127	0.56586
1537.78085	0.57619
1536.76042	0.58950
1535.73999	0.59526
1534.71957	0.59111
1533.69914	0.58295
1532.67872	0.57951
1531.65829	0.58344
1530.63787	0.58964
1529.61744	0.59281
1528.59702	0.59201
1527.57659	0.58953
1526.55617	0.58812
1525.53574	0.58912
1524.51532	0.59177
1523.49489	0.59217
1522.47447	0.58652
1521.45404	0.57916
1520.43362	0.57895
1519.41319	0.58525
1518.39277	0.58870
1517.37234	0.58546
1516.35192	0.58161
1515.33149	0.58317
1514.31106	0.58770
1513.29064	0.59099
1512.27021	0.59307
1511.24979	0.59583
1510.22936	0.59838
1509.20894	0.59619
1508.18851	0.58599
1507.16809	0.57147
1506.14766	0.56324
1505.12724	0.56853
1504.10681	0.58108
1503.08639	0.59101
1502.06596	0.59525
1501.04554	0.59575
1500.02511	0.59443
1499.00469	0.59179
1497.98426	0.58826
1496.96384	0.58480
1495.94341	0.58341
1494.92298	0.58673
1493.90256	0.59330
1492.88213	0.59763
1491.86171	0.59632
1490.84128	0.59055
1489.82086	0.58467
1488.80043	0.58241
1487.78001	0.58305
1486.75958	0.58478
1485.73916	0.58761
1484.71873	0.59075
1483.69831	0.59232
1482.67788	0.59184
1481.65746	0.59056
1480.63703	0.59040
1479.61661	0.59220
1478.59618	0.59428
1477.57576	0.59455
1476.55533	0.59346
1475.53491	0.59255
1474.51448	0.59067
1473.49405	0.58495
1472.47363	0.57824
1471.45320	0.57730
1470.43278	0.58296
1469.41235	0.58995
1468.39193	0.59422
1467.37150	0.59473
1466.35108	0.59145
1465.33065	0.58619
1464.31023	0.58353
1463.28980	0.58657
1462.26938	0.59269
1461.24895	0.59778
1460.22853	0.59917
1459.20810	0.59480
1458.18768	0.58484
1457.16725	0.57483
1456.14683	0.57212
1455.12640	0.57786
1454.10598	0.58567
1453.08555	0.59021
1452.06512	0.59173
1451.04470	0.59257
1450.02427	0.59295
1449.00385	0.59143
1447.98342	0.58874
1446.96300	0.58803
1445.94257	0.59011
1444.92215	0.59261
1443.90172	0.59396
1442.88130	0.59482
1441.86087	0.59646
1440.84045	0.59955
1439.82002	0.60301
1438.79960	0.60363
1437.77917	0.59923
1436.75875	0.59313
1435.73832	0.59200
1434.71790	0.59691
1433.69747	0.60218
1432.67704	0.60423
1431.65662	0.60335
1430.63619	0.60091
1429.61577	0.59897
1428.59534	0.59953
1427.57492	0.60181
1426.55449	0.60308
1425.53407	0.60191
1424.51364	0.59956
1423.49322	0.59917
1422.47279	0.60196
1421.45237	0.60405
1420.43194	0.60088
1419.41152	0.59401
1418.39109	0.58993
1417.37067	0.59129
1416.35024	0.59475
1415.32982	0.59751
1414.30939	0.59898
1413.28897	0.59915
1412.26854	0.59845
1411.24811	0.59775
1410.22769	0.59785
1409.20726	0.59898
1408.18684	0.60060
1407.16641	0.60131
1406.14599	0.59994
1405.12556	0.59749
1404.10514	0.59715
1403.08471	0.60028
1402.06429	0.60382
1401.04386	0.60439
1400.02344	0.60180
1399.00301	0.59920
1397.98259	0.60010
1396.96216	0.60263
1395.94174	0.60176
1394.92131	0.59758
1393.90089	0.59576
1392.88046	0.59887
1391.86004	0.60306
1390.83961	0.60545
1389.81918	0.60593
1388.79876	0.60389
1387.77833	0.59982
1386.75791	0.59761
1385.73748	0.59990
1384.71706	0.60340
1383.69663	0.60462
1382.67621	0.60441
1381.65578	0.60442
1380.63536	0.60473
1379.61493	0.60481
1378.59451	0.60513
1377.57408	0.60653
1376.55366	0.60775
1375.53323	0.60603
1374.51281	0.60183
1373.49238	0.60004
1372.47196	0.60304
1371.45153	0.60711
1370.43110	0.60830
1369.41068	0.60691
1368.39025	0.60566
1367.36983	0.60682
1366.34940	0.60996
1365.32898	0.61210
1364.30855	0.61080
1363.28813	0.60674
1362.26770	0.60445
1361.24728	0.60638
1360.22685	0.60969
1359.20643	0.61192
1358.18600	0.61294
1357.16558	0.61331
1356.14515	0.61351
1355.12473	0.61337
1354.10430	0.61346
1353.08388	0.61445
1352.06345	0.61551
1351.04303	0.61583
1350.02260	0.61569
1349.00217	0.61573
1347.98175	0.61642
1346.96132	0.61738
1345.94090	0.61806
1344.92047	0.61870
1343.90005	0.62005
1342.87962	0.62207
1341.85920	0.62307
1340.83877	0.62144
1339.81835	0.61870
1338.79792	0.61878
1337.77750	0.62185
1336.75707	0.62508
1335.73665	0.62757
1334.71622	0.62995
1333.69580	0.63188
1332.67537	0.63285
1331.65495	0.63305
1330.63452	0.63255
1329.61410	0.63173
1328.59367	0.63110
1327.57324	0.63085
1326.55282	0.63080
1325.53239	0.63084
1324.51197	0.63097
1323.49154	0.63122
1322.47112	0.63159
1321.45069	0.63173
1320.43027	0.63123
1319.40984	0.63023
1318.38942	0.62972
1317.36899	0.63022
1316.34857	0.63107
1315.32814	0.63156
1314.30772	0.63128
1313.28729	0.63043
1312.26687	0.63023
1311.24644	0.63109
1310.22602	0.63195
1309.20559	0.63187
1308.18516	0.63131
1307.16474	0.63120
1306.14431	0.63145
1305.12389	0.63155
1304.10346	0.63143
1303.08304	0.63131
1302.06261	0.63123
1301.04219	0.63113
1300.02176	0.63102
1299.00134	0.63094
1297.98091	0.63086
1296.96049	0.63059
1295.94006	0.63018
1294.91964	0.62988
1293.89921	0.62976
1292.87879	0.62963
1291.85836	0.62942
1290.83794	0.62914
1289.81751	0.62880
1288.79709	0.62830
1287.77666	0.62772
1286.75623	0.62747
1285.73581	0.62760
1284.71538	0.62756
1283.69496	0.62719
1282.67453	0.62682
1281.65411	0.62653
1280.63368	0.62625
1279.61326	0.62592
1278.59283	0.62562
1277.57241	0.62536
1276.55198	0.62508
1275.53156	0.62487
1274.51113	0.62476
1273.49071	0.62453
1272.47028	0.62392
1271.44986	0.62316
1270.42943	0.62275
1269.40901	0.62261
1268.38858	0.62243
1267.36816	0.62225
1266.34773	0.62204
1265.32730	0.62174
1264.30688	0.62151
1263.28645	0.62143
1262.26603	0.62125
1261.24560	0.62072
1260.22518	0.62005
1259.20475	0.61979
1258.18433	0.61989
1257.16390	0.61970
1256.14348	0.61930
1255.12305	0.61900
1254.10263	0.61881
1253.08220	0.61864
1252.06178	0.61846
1251.04135	0.61823
1250.02093	0.61797
1249.00050	0.61770
1247.98008	0.61744
1246.95965	0.61722
1245.93922	0.61702
1244.91880	0.61677
1243.89837	0.61638
1242.87795	0.61597
1241.85752	0.61564
1240.83710	0.61535
1239.81667	0.61508
1238.79625	0.61476
1237.77582	0.61439
1236.75540	0.61402
1235.73497	0.61365
1234.71455	0.61323
1233.69412	0.61279
1232.67370	0.61241
1231.65327	0.61209
1230.63285	0.61179
1229.61242	0.61150
1228.59200	0.61125
1227.57157	0.61104
1226.55115	0.61087
1225.53072	0.61064
1224.51029	0.61033
1223.48987	0.61009
1222.46944	0.60994
1221.44902	0.60978
1220.42859	0.60959
1219.40817	0.60940
1218.38774	0.60918
1217.36732	0.60898
1216.34689	0.60881
1215.32647	0.60861
1214.30604	0.60841
1213.28562	0.60828
1212.26519	0.60810
1211.24477	0.60787
1210.22434	0.60774
1209.20392	0.60770
1208.18349	0.60767
1207.16307	0.60762
1206.14264	0.60754
1205.12222	0.60751
1204.10179	0.60749
1203.08136	0.60740
1202.06094	0.60726
1201.04051	0.60717
1200.02009	0.60718
1198.99966	0.60722
1197.97924	0.60709
1196.95881	0.60695
1195.93839	0.60695
1194.91796	0.60699
1193.89754	0.60697
1192.87711	0.60690
1191.85669	0.60688
1190.83626	0.60692
1189.81584	0.60693
1188.79541	0.60692
1187.77499	0.60695
1186.75456	0.60693
1185.73414	0.60688
1184.71371	0.60690
1183.69328	0.60700
1182.67286	0.60712
1181.65243	0.60726
1180.63201	0.60739
1179.61158	0.60750
1178.59116	0.60762
1177.57073	0.60773
1176.55031	0.60788
1175.52988	0.60813
1174.50946	0.60833
1173.48903	0.60843
1172.46861	0.60859
1171.44818	0.60880
1170.42776	0.60901
1169.40733	0.60922
1168.38691	0.60939
1167.36648	0.60957
1166.34606	0.60977
1165.32563	0.60993
1164.30521	0.61005
1163.28478	0.61022
1162.26435	0.61040
1161.24393	0.61060
1160.22350	0.61085
1159.20308	0.61112
1158.18265	0.61138
1157.16223	0.61159
1156.14180	0.61170
1155.12138	0.61181
1154.10095	0.61201
1153.08053	0.61224
1152.06010	0.61247
1151.03968	0.61271
1150.01925	0.61292
1148.99883	0.61308
1147.97840	0.61325
1146.95798	0.61347
1145.93755	0.61372
1144.91713	0.61401
1143.89670	0.61430
1142.87628	0.61456
1141.85585	0.61479
1140.83542	0.61497
1139.81500	0.61510
1138.79457	0.61526
1137.77415	0.61542
1136.75372	0.61555
1135.73330	0.61565
1134.71287	0.61570
1133.69245	0.61574
1132.67202	0.61582
1131.65160	0.61588
1130.63117	0.61587
1129.61075	0.61584
1128.59032	0.61589
1127.56990	0.61597
1126.54947	0.61609
1125.52905	0.61618
1124.50862	0.61620
1123.48820	0.61621
1122.46777	0.61629
1121.44734	0.61638
1120.42692	0.61642
1119.40649	0.61645
1118.38607	0.61643
1117.36564	0.61633
1116.34522	0.61620
1115.32479	0.61611
1114.30437	0.61603
1113.28394	0.61594
1112.26352	0.61581
1111.24309	0.61565
1110.22267	0.61548
1109.20224	0.61534
1108.18182	0.61519
1107.16139	0.61498
1106.14097	0.61470
1105.12054	0.61443
1104.10012	0.61421
1103.07969	0.61406
1102.05927	0.61398
1101.03884	0.61391
1100.01841	0.61385
1098.99799	0.61378
1097.97756	0.61369
1096.95714	0.61358
1095.93671	0.61351
1094.91629	0.61348
1093.89586	0.61343
1092.87544	0.61335
1091.85501	0.61332
1090.83459	0.61334
1089.81416	0.61340
1088.79374	0.61347
1087.77331	0.61349
1086.75289	0.61347
1085.73246	0.61350
1084.71204	0.61360
1083.69161	0.61368
1082.67119	0.61364
1081.65076	0.61353
1080.63034	0.61343
1079.60991	0.61337
1078.58948	0.61335
1077.56906	0.61336
1076.54863	0.61338
1075.52821	0.61340
1074.50778	0.61343
1073.48736	0.61348
1072.46693	0.61354
1071.44651	0.61358
1070.42608	0.61364
1069.40566	0.61378
1068.38523	0.61392
1067.36481	0.61404
1066.34438	0.61420
1065.32396	0.61434
1064.30353	0.61443
1063.28311	0.61450
1062.26268	0.61455
1061.24226	0.61457
1060.22183	0.61450
1059.20140	0.61439
1058.18098	0.61433
1057.16055	0.61430
1056.14013	0.61426
1055.11970	0.61418
1054.09928	0.61403
1053.07885	0.61383
1052.05843	0.61361
1051.03800	0.61331
1050.01758	0.61289
1048.99715	0.61246
1047.97673	0.61210
1046.95630	0.61177
1045.93588	0.61137
1044.91545	0.61082
1043.89503	0.61021
1042.87460	0.60969
1041.85418	0.60921
1040.83375	0.60871
1039.81333	0.60820
1038.79290	0.60770
1037.77247	0.60723
1036.75205	0.60681
1035.73162	0.60635
1034.71120	0.60577
1033.69077	0.60514
1032.67035	0.60459
1031.64992	0.60411
1030.62950	0.60359
1029.60907	0.60294
1028.58865	0.60222
1027.56822	0.60157
1026.54780	0.60104
1025.52737	0.60056
1024.50695	0.60002
1023.48652	0.59939
1022.46610	0.59875
1021.44567	0.59818
1020.42525	0.59764
1019.40482	0.59705
1018.38440	0.59647
1017.36397	0.59594
1016.34354	0.59542
1015.32312	0.59493
1014.30269	0.59441
1013.28227	0.59382
1012.26184	0.59326
1011.24142	0.59280
1010.22099	0.59239
1009.20057	0.59195
1008.18014	0.59143
1007.15972	0.59086
1006.13929	0.59036
1005.11887	0.58997
1004.09844	0.58962
1003.07802	0.58924
1002.05759	0.58885
1001.03717	0.58848
1000.01674	0.58813
998.99632	0.58775
997.97589	0.58737
996.95547	0.58707
995.93504	0.58678
994.91461	0.58649
993.89419	0.58622
992.87376	0.58595
991.85334	0.58562
990.83291	0.58529
989.81249	0.58500
988.79206	0.58473
987.77164	0.58444
986.75121	0.58412
985.73079	0.58375
984.71036	0.58338
983.68994	0.58304
982.66951	0.58270
981.64909	0.58232
980.62866	0.58193
979.60824	0.58159
978.58781	0.58130
977.56739	0.58101
976.54696	0.58065
975.52653	0.58020
974.50611	0.57979
973.48568	0.57945
972.46526	0.57913
971.44483	0.57877
970.42441	0.57839
969.40398	0.57801
968.38356	0.57770
967.36313	0.57743
966.34271	0.57713
965.32228	0.57679
964.30186	0.57642
963.28143	0.57607
962.26101	0.57576
961.24058	0.57548
960.22016	0.57518
959.19973	0.57483
958.17931	0.57450
957.15888	0.57420
956.13846	0.57393
955.11803	0.57364
954.09760	0.57332
953.07718	0.57299
952.05675	0.57271
951.03633	0.57244
950.01590	0.57217
948.99548	0.57189
947.97505	0.57164
946.95463	0.57146
945.93420	0.57131
944.91378	0.57104
943.89335	0.57066
942.87293	0.57026
941.85250	0.56996
940.83208	0.56977
939.81165	0.56960
938.79123	0.56937
937.77080	0.56911
936.75038	0.56888
935.72995	0.56864
934.70953	0.56836
933.68910	0.56807
932.66867	0.56780
931.64825	0.56757
930.62782	0.56738
929.60740	0.56721
928.58697	0.56701
927.56655	0.56678
926.54612	0.56659
925.52570	0.56642
924.50527	0.56621
923.48485	0.56599
922.46442	0.56575
921.44400	0.56551
920.42357	0.56533
919.40315	0.56519
918.38272	0.56502
917.36230	0.56482
916.34187	0.56460
915.32145	0.56439
914.30102	0.56426
913.28059	0.56411
912.26017	0.56390
911.23974	0.56374
910.21932	0.56361
909.19889	0.56346
908.17847	0.56333
907.15804	0.56324
906.13762	0.56311
905.11719	0.56292
904.09677	0.56270
903.07634	0.56252
902.05592	0.56239
901.03549	0.56230
900.01507	0.56221
898.99464	0.56215
897.97422	0.56215
896.95379	0.56209
895.93337	0.56190
894.91294	0.56171
893.89252	0.56156
892.87209	0.56145
891.85166	0.56135
890.83124	0.56125
889.81081	0.56118
888.79039	0.56121
887.76996	0.56120
886.74954	0.56105
885.72911	0.56088
884.70869	0.56080
883.68826	0.56077
882.66784	0.56074
881.64741	0.56070
880.62699	0.56061
879.60656	0.56052
878.58614	0.56044
877.56571	0.56039
876.54529	0.56041
875.52486	0.56041
874.50444	0.56037
873.48401	0.56043
872.46359	0.56084
871.44316	0.56193
870.42273	0.56329
869.40231	0.56306
868.38188	0.56116
867.36146	0.55971
866.34103	0.55937
865.32061	0.55936
864.30018	0.55932
863.27976	0.55930
862.25933	0.55928
861.23891	0.55925
860.21848	0.55931
859.19806	0.55937
858.17763	0.55930
857.15721	0.55918
856.13678	0.55909
855.11636	0.55909
854.09593	0.55915
853.07551	0.55919
852.05508	0.55916
851.03465	0.55906
850.01423	0.55894
848.99380	0.55889
847.97338	0.55896
846.95295	0.55899
845.93253	0.55887
844.91210	0.55872
843.89168	0.55866
842.87125	0.55860
841.85083	0.55859
840.83040	0.55861
839.80998	0.55859
838.78955	0.55853
837.76913	0.55841
836.74870	0.55823
835.72828	0.55825
834.70785	0.55839
833.68743	0.55837
832.66700	0.55831
831.64658	0.55839
830.62615	0.55847
829.60572	0.55850
828.58530	0.55855
827.56487	0.55861
826.54445	0.55874
825.52402	0.55901
824.50360	0.55922
823.48317	0.55936
822.46275	0.55970
821.44232	0.56017
820.42190	0.56054
819.40147	0.56083
818.38105	0.56121
817.36062	0.56171
816.34020	0.56226
815.31977	0.56273
814.29935	0.56318
813.27892	0.56383
812.25850	0.56460
811.23807	0.56526
810.21765	0.56588
809.19722	0.56662
808.17679	0.56743
807.15637	0.56831
806.13594	0.56920
805.11552	0.56998
804.09509	0.57070
803.07467	0.57137
802.05424	0.57185
801.03382	0.57209
800.01339	0.57201
798.99297	0.57144
797.97254	0.57051
796.95212	0.56948
795.93169	0.56830
794.91127	0.56698
793.89084	0.56571
792.87042	0.56438
791.84999	0.56300
790.82957	0.56182
789.80914	0.56083
788.78871	0.55990
787.76829	0.55911
786.74786	0.55853
785.72744	0.55807
784.70701	0.55770
783.68659	0.55733
782.66616	0.55692
781.64574	0.55656
780.62531	0.55632
779.60489	0.55615
778.58446	0.55598
777.56404	0.55581
776.54361	0.55557
775.52319	0.55538
774.50276	0.55528
773.48234	0.55521
772.46191	0.55508
771.44149	0.55494
770.42106	0.55485
769.40064	0.55488
768.38021	0.55495
767.35978	0.55489
766.33936	0.55482
765.31893	0.55490
764.29851	0.55499
763.27808	0.55503
762.25766	0.55504
761.23723	0.55499
760.21681	0.55495
759.19638	0.55501
758.17596	0.55506
757.15553	0.55504
756.13511	0.55510
755.11468	0.55517
754.09426	0.55516
753.07383	0.55529
752.05341	0.55556
751.03298	0.55571
750.01256	0.55576
748.99213	0.55577
747.97171	0.55573
746.95128	0.55584
745.93085	0.55624
744.91043	0.55657
743.89000	0.55665
742.86958	0.55671
741.84915	0.55680
740.82873	0.55687
739.80830	0.55698
738.78788	0.55714
737.76745	0.55723
736.74703	0.55728
735.72660	0.55731
734.70618	0.55724
733.68575	0.55707
732.66533	0.55705
731.64490	0.55728
730.62448	0.55749
729.60405	0.55743
728.58363	0.55726
727.56320	0.55723
726.54277	0.55739
725.52235	0.55758
724.50192	0.55798
723.48150	0.55833
722.46107	0.55860
721.44065	0.55884
720.42022	0.55885
719.39980	0.55871
718.37937	0.55868
717.35895	0.55871
716.33852	0.55869
715.31810	0.55873
714.29767	0.55881
713.27725	0.55878
712.25682	0.55869
711.23640	0.55873
710.21597	0.55892
709.19555	0.55914
708.17512	0.55927
707.15470	0.55939
706.13427	0.55966
705.11384	0.56002
704.09342	0.56026
703.07299	0.56039
702.05257	0.56059
701.03214	0.56089
700.01172	0.56133
698.99129	0.56187
697.97087	0.56236
696.95044	0.56274
695.93002	0.56316
694.90959	0.56366
693.88917	0.56416
692.86874	0.56462
691.84832	0.56518
690.82789	0.56596
689.80747	0.56688
688.78704	0.56769
687.76662	0.56825
686.74619	0.56868
685.72577	0.56906
684.70534	0.56945
683.68491	0.56994
682.66449	0.57057
681.64406	0.57125
680.62364	0.57193
679.60321	0.57263
678.58279	0.57336
677.56236	0.57410
676.54194	0.57484
675.52151	0.57561
674.50109	0.57693
673.48066	0.57974
672.46024	0.58447
671.43981	0.58968
670.41939	0.59294
669.39896	0.59425
668.37854	0.59703
667.35811	0.60301
666.33769	0.61109
665.31726	0.61920
664.29683	0.62601
663.27641	0.63238
662.25598	0.63943
661.23556	0.64650
660.21513	0.65151
659.19471	0.65264
658.17428	0.64926
657.15386	0.64220
656.13343	0.63327
655.11301	0.62475
654.09258	0.61861
653.07216	0.61576
652.05173	0.61535
651.03131	0.61522
650.01088	0.61366
648.99046	0.61058
647.97003	0.60694
646.94961	0.60364
645.92918	0.60098
644.90876	0.59881
643.88833	0.59689
642.86790	0.59520
641.84748	0.59388
640.82705	0.59290
639.80663	0.59209
638.78620	0.59141
637.76578	0.59103
636.74535	0.59103
635.72493	0.59117
634.70450	0.59103
633.68408	0.59051
632.66365	0.58978
631.64323	0.58903
630.62280	0.58839
629.60238	0.58807
628.58195	0.58836
627.56153	0.58890
626.54110	0.58958
625.52068	0.59046
624.50025	0.59147
623.47983	0.59205
622.45940	0.59180
621.43897	0.59126
620.41855	0.59100
619.39812	0.59095
618.37770	0.59062
617.35727	0.59013
616.33685	0.59015
615.31642	0.59048
614.29600	0.59075
613.27557	0.59070
612.25515	0.59029
611.23472	0.59010
610.21430	0.59033
609.19387	0.59072
608.17345	0.59094
607.15302	0.59083
606.13260	0.59072
605.11217	0.59099
604.09175	0.59140
603.07132	0.59160
602.05089	0.59184
601.03047	0.59247
600.01004	0.59285
598.98962	0.59248
597.96919	0.59200
596.94877	0.59179
595.92834	0.59185
594.90792	0.59222
593.88749	0.59299
592.86707	0.59359
591.84664	0.59328
590.82622	0.59271
589.80579	0.59277
588.78537	0.59316
587.76494	0.59361
586.74452	0.59442
585.72409	0.59526
584.70367	0.59548
583.68324	0.59536
582.66282	0.59556
581.64239	0.59587
580.62196	0.59573
579.60154	0.59518
578.58111	0.59484
577.56069	0.59495
576.54026	0.59528
575.51984	0.59557
574.49941	0.59585
573.47899	0.59612
572.45856	0.59611
571.43814	0.59594
570.41771	0.59602
569.39729	0.59620
568.37686	0.59628
567.35644	0.59662
566.33601	0.59728
565.31559	0.59780
564.29516	0.59797
563.27474	0.59817
562.25431	0.59837
561.23389	0.59802
560.21346	0.59743
559.19303	0.59730
558.17261	0.59763
557.15218	0.59770
556.13176	0.59737
555.11133	0.59723
554.09091	0.59809
553.07048	0.59970
552.05006	0.60043
551.02963	0.60006
550.00921	0.59960
548.98878	0.59966
547.96836	0.60009
546.94793	0.60046
545.92751	0.60118
544.90708	0.60247
543.88666	0.60316
542.86623	0.60262
541.84581	0.60126
540.82538	0.59939
539.80495	0.59754
538.78453	0.59708
537.76410	0.59795
536.74368	0.59789
535.72325	0.59678
534.70283	0.59673
533.68240	0.59791
532.66198	0.59894
531.64155	0.59911
530.62113	0.59845
529.60070	0.59697
528.58028	0.59573
527.55985	0.59658
526.53943	0.59808
525.51900	0.59728
524.49858	0.59551
523.47815	0.59429
522.45773	0.59360
521.43730	0.59351
520.41688	0.59305
519.39645	0.59309
518.37602	0.59423
517.35560	0.59475
516.33517	0.59608
515.31475	0.59887
514.29432	0.59835
513.27390	0.59367
512.25347	0.59064
511.23305	0.59085
510.21262	0.59175
509.19220	0.59373
508.17177	0.59502
507.15135	0.59213
506.13092	0.59008
505.11050	0.59316
504.09007	0.59028
503.06965	0.57799
502.04922	0.57196
501.02880	0.57604
500.00837	0.57880
498.98795	0.58040
