3998.02611	0.50925
3997.00569	0.50995
3995.98526	0.51062
3994.96484	0.51011
3993.94441	0.50921
3992.92399	0.50933
3991.90356	0.51010
3990.88314	0.51016
3989.86271	0.50919
3988.84229	0.50836
3987.82186	0.50831
3986.80143	0.50870
3985.78101	0.50910
3984.76058	0.50946
3983.74016	0.50992
3982.71973	0.51010
3981.69931	0.50972
3980.67888	0.50920
3979.65846	0.50897
3978.63803	0.50936
3977.61761	0.51046
3976.59718	0.51130
3975.57676	0.51101
3974.55633	0.51036
3973.53591	0.51001
3972.51548	0.50942
3971.49506	0.50898
3970.47463	0.50950
3969.45421	0.50970
3968.43378	0.50880
3967.41336	0.50827
3966.39293	0.50863
3965.37250	0.50929
3964.35208	0.51056
3963.33165	0.51260
3962.31123	0.51293
3961.29080	0.51066
3960.27038	0.50901
3959.24995	0.50928
3958.22953	0.51004
3957.20910	0.51011
3956.18868	0.50969
3955.16825	0.50998
3954.14783	0.51088
3953.12740	0.51137
3952.10698	0.51308
3951.08655	0.51621
3950.06613	0.51701
3949.04570	0.51562
3948.02528	0.51284
3947.00485	0.50858
3945.98442	0.50751
3944.96400	0.51228
3943.94357	0.51858
3942.92315	0.51725
3941.90272	0.50946
3940.88230	0.50577
3939.86187	0.50695
3938.84145	0.50838
3937.82102	0.50884
3936.80060	0.50998
3935.78017	0.51280
3934.75975	0.51751
3933.73932	0.52305
3932.71890	0.52337
3931.69847	0.51737
3930.67805	0.51260
3929.65762	0.50964
3928.63720	0.50711
3927.61677	0.50886
3926.59635	0.51623
3925.57592	0.52223
3924.55549	0.51870
3923.53507	0.51105
3922.51464	0.50968
3921.49422	0.51509
3920.47379	0.51799
3919.45337	0.51715
3918.43294	0.52066
3917.41252	0.52109
3916.39209	0.51181
3915.37167	0.50495
3914.35124	0.50519
3913.33082	0.50760
3912.31039	0.50972
3911.28997	0.51147
3910.26954	0.51286
3909.24912	0.51436
3908.22869	0.51843
3907.20827	0.52697
3906.18784	0.53763
3905.16742	0.54267
3904.14699	0.53770
3903.12656	0.53092
3902.10614	0.52314
3901.08571	0.51813
3900.06529	0.51864
3899.04486	0.51107
3898.02444	0.50075
3897.00401	0.50014
3895.98359	0.50632
3894.96316	0.51383
3893.94274	0.52239
3892.92231	0.53418
3891.90189	0.53685
3890.88146	0.52019
3889.86104	0.50697
3888.84061	0.50880
3887.82019	0.52283
3886.79976	0.53970
3885.77934	0.53573
3884.75891	0.51832
3883.73848	0.51245
3882.71806	0.51931
3881.69763	0.53288
3880.67721	0.53246
3879.65678	0.51355
3878.63636	0.50396
3877.61593	0.50728
3876.59551	0.51790
3875.57508	0.53337
3874.55466	0.53781
3873.53423	0.52624
3872.51381	0.52575
3871.49338	0.54312
3870.47296	0.55198
3869.45253	0.52735
3868.43211	0.50615
3867.41168	0.51054
3866.39126	0.52891
3865.37083	0.53734
3864.35041	0.52732
3863.32998	0.52221
3862.30955	0.52115
3861.28913	0.51389
3860.26870	0.51089
3859.24828	0.51852
3858.22785	0.52953
3857.20743	0.53702
3856.18700	0.55186
3855.16658	0.58120
3854.14615	0.59096
3853.12573	0.55380
3852.10530	0.51417
3851.08488	0.49816
3850.06445	0.49906
3849.04403	0.50450
3848.02360	0.51054
3847.00318	0.51815
3845.98275	0.52872
3844.96233	0.54026
3843.94190	0.54203
3842.92148	0.53837
3841.90105	0.54334
3840.88062	0.54858
3839.86020	0.55068
3838.83977	0.55315
3837.81935	0.53971
3836.79892	0.52549
3835.77850	0.52422
3834.75807	0.52103
3833.73765	0.52168
3832.71722	0.53092
3831.69680	0.53056
3830.67637	0.52186
3829.65595	0.52252
3828.63552	0.53221
3827.61510	0.54004
3826.59467	0.53719
3825.57425	0.53150
3824.55382	0.53431
3823.53340	0.54902
3822.51297	0.57204
3821.49255	0.57477
3820.47212	0.54274
3819.45169	0.52235
3818.43127	0.52811
3817.41084	0.54783
3816.39042	0.55194
3815.36999	0.53005
3814.34957	0.51814
3813.32914	0.52056
3812.30872	0.52618
3811.28829	0.53140
3810.26787	0.53748
3809.24744	0.54948
3808.22702	0.56636
3807.20659	0.56478
3806.18617	0.54226
3805.16574	0.53416
3804.14532	0.54604
3803.12489	0.56797
3802.10447	0.57785
3801.08404	0.55288
3800.06361	0.52987
3799.04319	0.53063
3798.02276	0.54272
3797.00234	0.54786
3795.98191	0.53959
3794.96149	0.53325
3793.94106	0.53486
3792.92064	0.53873
3791.90021	0.54215
3790.87979	0.54505
3789.85936	0.54709
3788.83894	0.54857
3787.81851	0.55089
3786.79809	0.55523
3785.77766	0.55881
3784.75724	0.55587
3783.73681	0.54984
3782.71639	0.54902
3781.69596	0.55590
3780.67554	0.56617
3779.65511	0.56535
3778.63468	0.55307
3777.61426	0.54627
3776.59383	0.54692
3775.57341	0.54986
3774.55298	0.55303
3773.53256	0.55661
3772.51213	0.56342
3771.49171	0.57540
3770.47128	0.58035
3769.45086	0.56655
3768.43043	0.55614
3767.41001	0.56162
3766.38958	0.56838
3765.36916	0.56307
3764.34873	0.55651
3763.32831	0.55734
3762.30788	0.56418
3761.28746	0.57709
3760.26703	0.58588
3759.24661	0.57854
3758.22618	0.57179
3757.20575	0.57178
3756.18533	0.56937
3755.16490	0.57211
3754.14448	0.58970
3753.12405	0.61254
3752.10363	0.61424
3751.08320	0.60455
3750.06278	0.59749
3749.04235	0.57799
3748.02193	0.56637
3747.00150	0.57841
3745.98108	0.60871
3744.96065	0.62181
3743.94023	0.58500
3742.91980	0.56620
3741.89938	0.57117
3740.87895	0.57782
3739.85853	0.58534
3738.83810	0.59844
3737.81767	0.61409
3736.79725	0.62813
3735.77682	0.62715
3734.75640	0.60603
3733.73597	0.59427
3732.71555	0.59196
3731.69512	0.58110
3730.67470	0.57249
3729.65427	0.57541
3728.63385	0.58545
3727.61342	0.59570
3726.59300	0.59678
3725.57257	0.58912
3724.55215	0.58554
3723.53172	0.58944
3722.51130	0.58735
3721.49087	0.57839
3720.47045	0.57775
3719.45002	0.58079
3718.42960	0.57864
3717.40917	0.57784
3716.38874	0.58244
3715.36832	0.58906
3714.34789	0.60014
3713.32747	0.61691
3712.30704	0.61921
3711.28662	0.60309
3710.26619	0.59168
3709.24577	0.58047
3708.22534	0.57186
3707.20492	0.57341
3706.18449	0.57890
3705.16407	0.58337
3704.14364	0.59065
3703.12322	0.60182
3702.10279	0.60322
3701.08237	0.59063
3700.06194	0.58252
3699.04152	0.58323
3698.02109	0.58687
3697.00067	0.58996
3695.98024	0.59140
3694.95981	0.59279
3693.93939	0.59733
3692.91896	0.60844
3691.89854	0.61974
3690.87811	0.62013
3689.85769	0.61966
3688.83726	0.61247
3687.81684	0.58839
3686.79641	0.57576
3685.77599	0.57896
3684.75556	0.58508
3683.73514	0.58918
3682.71471	0.59339
3681.69429	0.60045
3680.67386	0.60881
3679.65344	0.61137
3678.63301	0.61239
3677.61259	0.62696
3676.59216	0.65128
3675.57173	0.64165
3674.55131	0.59716
3673.53088	0.58160
3672.51046	0.59576
3671.49003	0.61808
3670.46961	0.62271
3669.44918	0.60691
3668.42876	0.59009
3667.40833	0.58386
3666.38791	0.58730
3665.36748	0.59326
3664.34706	0.59820
3663.32663	0.60193
3662.30621	0.60480
3661.28578	0.60712
3660.26536	0.60829
3659.24493	0.61031
3658.22451	0.61907
3657.20408	0.62914
3656.18366	0.62071
3655.16323	0.60415
3654.14280	0.60203
3653.12238	0.61492
3652.10195	0.63735
3651.08153	0.65562
3650.06110	0.65204
3649.04068	0.63636
3648.02025	0.62118
3646.99983	0.60159
3645.97940	0.58854
3644.95898	0.59013
3643.93855	0.59922
3642.91813	0.60685
3641.89770	0.60941
3640.87728	0.61026
3639.85685	0.61294
3638.83643	0.61552
3637.81600	0.61496
3636.79558	0.61439
3635.77515	0.61893
3634.75473	0.62480
3633.73430	0.62281
3632.71387	0.61921
3631.69345	0.62821
3630.67302	0.65089
3629.65260	0.66499
3628.63217	0.63855
3627.61175	0.60851
3626.59132	0.60074
3625.57090	0.60309
3624.55047	0.60861
3623.53005	0.61610
3622.50962	0.62561
3621.48920	0.63804
3620.46877	0.64814
3619.44835	0.64668
3618.42792	0.63512
3617.40750	0.62416
3616.38707	0.62347
3615.36665	0.63057
3614.34622	0.63702
3613.32579	0.63698
3612.30537	0.62791
3611.28494	0.62432
3610.26452	0.63155
3609.24409	0.63459
3608.22367	0.62985
3607.20324	0.62263
3606.18282	0.61530
3605.16239	0.61432
3604.14197	0.61927
3603.12154	0.62567
3602.10112	0.63130
3601.08069	0.63309
3600.06027	0.63105
3599.03984	0.62889
3598.01942	0.62865
3596.99899	0.63218
3595.97857	0.63530
3594.95814	0.63338
3593.93772	0.62985
3592.91729	0.62573
3591.89686	0.62396
3590.87644	0.63008
3589.85601	0.64283
3588.83559	0.65301
3587.81516	0.65159
3586.79474	0.63730
3585.77431	0.62261
3584.75389	0.61921
3583.73346	0.62223
3582.71304	0.62526
3581.69261	0.62878
3580.67219	0.63194
3579.65176	0.63244
3578.63134	0.63234
3577.61091	0.63290
3576.59049	0.63297
3575.57006	0.63313
3574.54964	0.63284
3573.52921	0.63189
3572.50879	0.63233
3571.48836	0.63482
3570.46793	0.64047
3569.44751	0.65126
3568.42708	0.66107
3567.40666	0.65875
3566.38623	0.64346
3565.36581	0.62871
3564.34538	0.62439
3563.32496	0.62588
3562.30453	0.62867
3561.28411	0.63231
3560.26368	0.63375
3559.24326	0.63280
3558.22283	0.63283
3557.20241	0.63361
3556.18198	0.63452
3555.16156	0.63704
3554.14113	0.64095
3553.12071	0.64316
3552.10028	0.64015
3551.07985	0.63529
3550.05943	0.63471
3549.03900	0.63898
3548.01858	0.64425
3546.99815	0.64622
3545.97773	0.64448
3544.95730	0.64030
3543.93688	0.63568
3542.91645	0.63315
3541.89603	0.63319
3540.87560	0.63475
3539.85518	0.63648
3538.83475	0.63861
3537.81433	0.64167
3536.79390	0.64264
3535.77348	0.63987
3534.75305	0.63751
3533.73263	0.63784
3532.71220	0.63966
3531.69178	0.64175
3530.67135	0.64372
3529.65092	0.64539
3528.63050	0.64577
3527.61007	0.64426
3526.58965	0.64223
3525.56922	0.64214
3524.54880	0.64400
3523.52837	0.64385
3522.50795	0.64023
3521.48752	0.63778
3520.46710	0.63874
3519.44667	0.64047
3518.42625	0.64099
3517.40582	0.64086
3516.38540	0.64095
3515.36497	0.64159
3514.34455	0.64259
3513.32412	0.64359
3512.30370	0.64463
3511.28327	0.64648
3510.26285	0.64774
3509.24242	0.64533
3508.22199	0.64171
3507.20157	0.64133
3506.18114	0.64390
3505.16072	0.64760
3504.14029	0.65023
3503.11987	0.64906
3502.09944	0.64508
3501.07902	0.64211
3500.05859	0.64142
3499.03817	0.64246
3498.01774	0.64459
3496.99732	0.64621
3495.97689	0.64596
3494.95647	0.64476
3493.93604	0.64413
3492.91562	0.64441
3491.89519	0.64507
3490.87477	0.64578
3489.85434	0.64710
3488.83391	0.64822
3487.81349	0.64759
3486.79306	0.64636
3485.77264	0.64586
3484.75221	0.64641
3483.73179	0.64838
3482.71136	0.64991
3481.69094	0.64895
3480.67051	0.64680
3479.65009	0.64536
3478.62966	0.64520
3477.60924	0.64606
3476.58881	0.64741
3475.56839	0.64830
3474.54796	0.64795
3473.52754	0.64727
3472.50711	0.64720
3471.48669	0.64743
3470.46626	0.64765
3469.44584	0.64818
3468.42541	0.64912
3467.40498	0.64957
3466.38456	0.64905
3465.36413	0.64867
3464.34371	0.64926
3463.32328	0.64999
3462.30286	0.64980
3461.28243	0.64900
3460.26201	0.64850
3459.24158	0.64853
3458.22116	0.64877
3457.20073	0.64902
3456.18031	0.64920
3455.15988	0.64923
3454.13946	0.64926
3453.11903	0.64939
3452.09861	0.64956
3451.07818	0.64976
3450.05776	0.65054
3449.03733	0.65298
3448.01691	0.65531
3446.99648	0.65379
3445.97605	0.65033
3444.95563	0.64922
3443.93520	0.65035
3442.91478	0.65125
3441.89435	0.65073
3440.87393	0.65012
3439.85350	0.65034
3438.83308	0.65084
3437.81265	0.65121
3436.79223	0.65143
3435.77180	0.65161
3434.75138	0.65184
3433.73095	0.65215
3432.71053	0.65246
3431.69010	0.65262
3430.66968	0.65245
3429.64925	0.65231
3428.62883	0.65244
3427.60840	0.65249
3426.58797	0.65244
3425.56755	0.65268
3424.54712	0.65336
3423.52670	0.65430
3422.50627	0.65530
3421.48585	0.65569
3420.46542	0.65461
3419.44500	0.65285
3418.42457	0.65205
3417.40415	0.65234
3416.38372	0.65304
3415.36330	0.65366
3414.34287	0.65403
3413.32245	0.65421
3412.30202	0.65428
3411.28160	0.65433
3410.26117	0.65450
3409.24075	0.65475
3408.22032	0.65494
3407.19990	0.65506
3406.17947	0.65517
3405.15904	0.65532
3404.13862	0.65550
3403.11819	0.65557
3402.09777	0.65558
3401.07734	0.65560
3400.05692	0.65579
3399.03649	0.65649
3398.01607	0.65720
3396.99564	0.65683
3395.97522	0.65603
3394.95479	0.65639
3393.93437	0.65756
3392.91394	0.65772
3391.89352	0.65665
3390.87309	0.65599
3389.85267	0.65620
3388.83224	0.65667
3387.81182	0.65717
3386.79139	0.65775
3385.77097	0.65821
3384.75054	0.65815
3383.73011	0.65771
3382.70969	0.65742
3381.68926	0.65754
3380.66884	0.65791
3379.64841	0.65827
3378.62799	0.65846
3377.60756	0.65850
3376.58714	0.65855
3375.56671	0.65866
3374.54629	0.65882
3373.52586	0.65905
3372.50544	0.65932
3371.48501	0.65962
3370.46459	0.65996
3369.44416	0.66037
3368.42374	0.66073
3367.40331	0.66098
3366.38289	0.66112
3365.36246	0.66098
3364.34203	0.66072
3363.32161	0.66087
3362.30118	0.66120
3361.28076	0.66124
3360.26033	0.66122
3359.23991	0.66140
3358.21948	0.66174
3357.19906	0.66214
3356.17863	0.66230
3355.15821	0.66214
3354.13778	0.66200
3353.11736	0.66215
3352.09693	0.66248
3351.07651	0.66283
3350.05608	0.66316
3349.03566	0.66341
3348.01523	0.66353
3346.99481	0.66359
3345.97438	0.66369
3344.95396	0.66386
3343.93353	0.66411
3342.91310	0.66430
3341.89268	0.66437
3340.87225	0.66437
3339.85183	0.66450
3338.83140	0.66502
3337.81098	0.66567
3336.79055	0.66576
3335.77013	0.66536
3334.74970	0.66502
3333.72928	0.66490
3332.70885	0.66504
3331.68843	0.66534
3330.66800	0.66567
3329.64758	0.66608
3328.62715	0.66657
3327.60673	0.66694
3326.58630	0.66703
3325.56588	0.66699
3324.54545	0.66705
3323.52503	0.66718
3322.50460	0.66735
3321.48417	0.66758
3320.46375	0.66785
3319.44332	0.66813
3318.42290	0.66835
3317.40247	0.66847
3316.38205	0.66866
3315.36162	0.66909
3314.34120	0.66960
3313.32077	0.66971
3312.30035	0.66957
3311.27992	0.66976
3310.25950	0.67033
3309.23907	0.67066
3308.21865	0.67045
3307.19822	0.67025
3306.17780	0.67044
3305.15737	0.67084
3304.13695	0.67119
3303.11652	0.67135
3302.09609	0.67144
3301.07567	0.67162
3300.05524	0.67197
3299.03482	0.67241
3298.01439	0.67276
3296.99397	0.67287
3295.97354	0.67300
3294.95312	0.67339
3293.93269	0.67391
3292.91227	0.67427
3291.89184	0.67428
3290.87142	0.67421
3289.85099	0.67446
3288.83057	0.67488
3287.81014	0.67526
3286.78972	0.67574
3285.76929	0.67642
3284.74887	0.67723
3283.72844	0.67775
3282.70802	0.67782
3281.68759	0.67789
3280.66716	0.67810
3279.64674	0.67832
3278.62631	0.67886
3277.60589	0.67979
3276.58546	0.68038
3275.56504	0.68071
3274.54461	0.68148
3273.52419	0.68234
3272.50376	0.68283
3271.48334	0.68267
3270.46291	0.68179
3269.44249	0.68087
3268.42206	0.68045
3267.40164	0.68034
3266.38121	0.68037
3265.36079	0.68050
3264.34036	0.68073
3263.31994	0.68100
3262.29951	0.68130
3261.27909	0.68156
3260.25866	0.68177
3259.23823	0.68218
3258.21781	0.68275
3257.19738	0.68288
3256.17696	0.68266
3255.15653	0.68257
3254.13611	0.68217
3253.11568	0.68152
3252.09526	0.68143
3251.07483	0.68172
3250.05441	0.68187
3249.03398	0.68197
3248.01356	0.68230
3246.99313	0.68293
3245.97271	0.68344
3244.95228	0.68307
3243.93186	0.68227
3242.91143	0.68206
3241.89101	0.68233
3240.87058	0.68262
3239.85015	0.68279
3238.82973	0.68302
3237.80930	0.68331
3236.78888	0.68316
3235.76845	0.68267
3234.74803	0.68241
3233.72760	0.68232
3232.70718	0.68218
3231.68675	0.68214
3230.66633	0.68214
3229.64590	0.68213
3228.62548	0.68217
3227.60505	0.68200
3226.58463	0.68160
3225.56420	0.68129
3224.54378	0.68108
3223.52335	0.68100
3222.50293	0.68109
3221.48250	0.68145
3220.46208	0.68200
3219.44165	0.68200
3218.42122	0.68136
3217.40080	0.68096
3216.38037	0.68122
3215.35995	0.68179
3214.33952	0.68183
3213.31910	0.68125
3212.29867	0.68103
3211.27825	0.68152
3210.25782	0.68181
3209.23740	0.68144
3208.21697	0.68115
3207.19655	0.68130
3206.17612	0.68156
3205.15570	0.68183
3204.13527	0.68210
3203.11485	0.68228
3202.09442	0.68238
3201.07400	0.68246
3200.05357	0.68268
3199.03315	0.68301
3198.01272	0.68295
3196.99229	0.68239
3195.97187	0.68178
3194.95144	0.68141
3193.93102	0.68134
3192.91059	0.68156
3191.89017	0.68187
3190.86974	0.68199
3189.84932	0.68195
3188.82889	0.68195
3187.80847	0.68199
3186.78804	0.68207
3185.76762	0.68201
3184.74719	0.68156
3183.72677	0.68098
3182.70634	0.68060
3181.68592	0.68042
3180.66549	0.68060
3179.64507	0.68111
3178.62464	0.68101
3177.60421	0.67987
3176.58379	0.67879
3175.56336	0.67847
3174.54294	0.67854
3173.52251	0.67863
3172.50209	0.67852
3171.48166	0.67827
3170.46124	0.67798
3169.44081	0.67774
3168.42039	0.67761
3167.39996	0.67755
3166.37954	0.67756
3165.35911	0.67764
3164.33869	0.67759
3163.31826	0.67729
3162.29784	0.67688
3161.27741	0.67649
3160.25699	0.67621
3159.23656	0.67604
3158.21614	0.67591
3157.19571	0.67575
3156.17528	0.67553
3155.15486	0.67531
3154.13443	0.67517
3153.11401	0.67511
3152.09358	0.67499
3151.07316	0.67479
3150.05273	0.67459
3149.03231	0.67452
3148.01188	0.67462
3146.99146	0.67483
3145.97103	0.67508
3144.95061	0.67532
3143.93018	0.67519
3142.90976	0.67451
3141.88933	0.67370
3140.86891	0.67318
3139.84848	0.67299
3138.82806	0.67299
3137.80763	0.67292
3136.78721	0.67256
3135.76678	0.67206
3134.74635	0.67193
3133.72593	0.67183
3132.70550	0.67105
3131.68508	0.67012
3130.66465	0.66976
3129.64423	0.66985
3128.62380	0.67012
3127.60338	0.67024
3126.58295	0.66989
3125.56253	0.66935
3124.54210	0.66942
3123.52168	0.66985
3122.50125	0.66965
3121.48083	0.66905
3120.46040	0.66904
3119.43998	0.66935
3118.41955	0.66936
3117.39913	0.66949
3116.37870	0.66978
3115.35828	0.66978
3114.33785	0.66983
3113.31742	0.67029
3112.29700	0.67103
3111.27657	0.67207
3110.25615	0.67366
3109.23572	0.67619
3108.21530	0.67904
3107.19487	0.67963
3106.17445	0.67677
3105.15402	0.67279
3104.13360	0.66997
3103.11317	0.66849
3102.09275	0.66762
3101.07232	0.66668
3100.05190	0.66565
3099.03147	0.66503
3098.01105	0.66501
3096.99062	0.66516
3095.97020	0.66476
3094.94977	0.66398
3093.92934	0.66343
3092.90892	0.66315
3091.88849	0.66300
3090.86807	0.66292
3089.84764	0.66287
3088.82722	0.66283
3087.80679	0.66265
3086.78637	0.66225
3085.76594	0.66183
3084.74552	0.66158
3083.72509	0.66147
3082.70467	0.66129
3081.68424	0.66098
3080.66382	0.66070
3079.64339	0.66036
3078.62297	0.65986
3077.60254	0.65933
3076.58212	0.65886
3075.56169	0.65858
3074.54127	0.65843
3073.52084	0.65823
3072.50041	0.65806
3071.47999	0.65797
3070.45956	0.65791
3069.43914	0.65797
3068.41871	0.65819
3067.39829	0.65815
3066.37786	0.65773
3065.35744	0.65741
3064.33701	0.65689
3063.31659	0.65617
3062.29616	0.65595
3061.27574	0.65607
3060.25531	0.65603
3059.23489	0.65593
3058.21446	0.65616
3057.19404	0.65643
3056.17361	0.65589
3055.15319	0.65491
3054.13276	0.65444
3053.11234	0.65439
3052.09191	0.65434
3051.07148	0.65433
3050.05106	0.65445
3049.03063	0.65424
3048.01021	0.65358
3046.98978	0.65309
3045.96936	0.65293
3044.94893	0.65283
3043.92851	0.65270
3042.90808	0.65253
3041.88766	0.65230
3040.86723	0.65205
3039.84681	0.65179
3038.82638	0.65157
3037.80596	0.65147
3036.78553	0.65148
3035.76511	0.65148
3034.74468	0.65126
3033.72426	0.65104
3032.70383	0.65116
3031.68340	0.65087
3030.66298	0.64984
3029.64255	0.64903
3028.62213	0.64882
3027.60170	0.64891
3026.58128	0.64896
3025.56085	0.64870
3024.54043	0.64839
3023.52000	0.64822
3022.49958	0.64801
3021.47915	0.64773
3020.45873	0.64751
3019.43830	0.64738
3018.41788	0.64728
3017.39745	0.64720
3016.37703	0.64708
3015.35660	0.64683
3014.33618	0.64670
3013.31575	0.64663
3012.29533	0.64615
3011.27490	0.64554
3010.25447	0.64513
3009.23405	0.64477
3008.21362	0.64455
3007.19320	0.64452
3006.17277	0.64457
3005.15235	0.64443
3004.13192	0.64392
3003.11150	0.64337
3002.09107	0.64310
3001.07065	0.64295
3000.05022	0.64276
2999.02980	0.64257
2998.00937	0.64238
2996.98895	0.64226
2995.96852	0.64223
2994.94810	0.64203
2993.92767	0.64162
2992.90725	0.64125
2991.88682	0.64097
2990.86640	0.64073
2989.84597	0.64061
2988.82554	0.64059
2987.80512	0.64042
2986.78469	0.64006
2985.76427	0.63979
2984.74384	0.63965
2983.72342	0.63956
2982.70299	0.63944
2981.68257	0.63934
2980.66214	0.63921
2979.64172	0.63902
2978.62129	0.63886
2977.60087	0.63868
2976.58044	0.63850
2975.56002	0.63841
2974.53959	0.63837
2973.51917	0.63829
2972.49874	0.63814
2971.47832	0.63800
2970.45789	0.63792
2969.43746	0.63780
2968.41704	0.63760
2967.39661	0.63744
2966.37619	0.63726
2965.35576	0.63700
2964.33534	0.63675
2963.31491	0.63655
2962.29449	0.63631
2961.27406	0.63599
2960.25364	0.63572
2959.23321	0.63553
2958.21279	0.63531
2957.19236	0.63503
2956.17194	0.63476
2955.15151	0.63451
2954.13109	0.63425
2953.11066	0.63396
2952.09024	0.63368
2951.06981	0.63343
2950.04939	0.63325
2949.02896	0.63311
2948.00853	0.63296
2946.98811	0.63282
2945.96768	0.63265
2944.94726	0.63247
2943.92683	0.63233
2942.90641	0.63220
2941.88598	0.63209
2940.86556	0.63198
2939.84513	0.63182
2938.82471	0.63165
2937.80428	0.63146
2936.78386	0.63132
2935.76343	0.63126
2934.74301	0.63122
2933.72258	0.63112
2932.70216	0.63095
2931.68173	0.63077
2930.66131	0.63072
2929.64088	0.63074
2928.62046	0.63063
2927.60003	0.63040
2926.57960	0.63012
2925.55918	0.62980
2924.53875	0.62950
2923.51833	0.62925
2922.49790	0.62893
2921.47748	0.62859
2920.45705	0.62833
2919.43663	0.62810
2918.41620	0.62786
2917.39578	0.62761
2916.37535	0.62731
2915.35493	0.62690
2914.33450	0.62643
2913.31408	0.62598
2912.29365	0.62549
2911.27323	0.62503
2910.25280	0.62467
2909.23238	0.62434
2908.21195	0.62392
2907.19152	0.62346
2906.17110	0.62309
2905.15067	0.62281
2904.13025	0.62249
2903.10982	0.62215
2902.08940	0.62183
2901.06897	0.62151
2900.04855	0.62114
2899.02812	0.62077
2898.00770	0.62051
2896.98727	0.62034
2895.96685	0.62017
2894.94642	0.61992
2893.92600	0.61953
2892.90557	0.61913
2891.88515	0.61881
2890.86472	0.61851
2889.84430	0.61819
2888.82387	0.61785
2887.80345	0.61754
2886.78302	0.61733
2885.76259	0.61717
2884.74217	0.61689
2883.72174	0.61651
2882.70132	0.61617
2881.68089	0.61592
2880.66047	0.61568
2879.64004	0.61540
2878.61962	0.61511
2877.59919	0.61487
2876.57877	0.61473
2875.55834	0.61461
2874.53792	0.61440
2873.51749	0.61413
2872.49707	0.61390
2871.47664	0.61368
2870.45622	0.61345
2869.43579	0.61322
2868.41537	0.61299
2867.39494	0.61275
2866.37452	0.61251
2865.35409	0.61228
2864.33366	0.61207
2863.31324	0.61187
2862.29281	0.61164
2861.27239	0.61144
2860.25196	0.61134
2859.23154	0.61126
2858.21111	0.61110
2857.19069	0.61094
2856.17026	0.61079
2855.14984	0.61064
2854.12941	0.61047
2853.10899	0.61028
2852.08856	0.61008
2851.06814	0.60987
2850.04771	0.60956
2849.02729	0.60915
2848.00686	0.60872
2846.98644	0.60830
2845.96601	0.60778
2844.94558	0.60725
2843.92516	0.60682
2842.90473	0.60646
2841.88431	0.60608
2840.86388	0.60577
2839.84346	0.60555
2838.82303	0.60535
2837.80261	0.60510
2836.78218	0.60481
2835.76176	0.60457
2834.74133	0.60435
2833.72091	0.60407
2832.70048	0.60379
2831.68006	0.60351
2830.65963	0.60318
2829.63921	0.60289
2828.61878	0.60271
2827.59836	0.60252
2826.57793	0.60229
2825.55751	0.60207
2824.53708	0.60184
2823.51665	0.60155
2822.49623	0.60126
2821.47580	0.60099
2820.45538	0.60073
2819.43495	0.60052
2818.41453	0.60033
2817.39410	0.60014
2816.37368	0.59996
2815.35325	0.59977
2814.33283	0.59954
2813.31240	0.59930
2812.29198	0.59915
2811.27155	0.59905
2810.25113	0.59888
2809.23070	0.59863
2808.21028	0.59839
2807.18985	0.59819
2806.16943	0.59797
2805.14900	0.59774
2804.12858	0.59751
2803.10815	0.59730
2802.08772	0.59713
2801.06730	0.59698
2800.04687	0.59682
2799.02645	0.59665
2798.00602	0.59645
2796.98560	0.59623
2795.96517	0.59607
2794.94475	0.59596
2793.92432	0.59579
2792.90390	0.59556
2791.88347	0.59539
2790.86305	0.59529
2789.84262	0.59517
2788.82220	0.59502
2787.80177	0.59490
2786.78135	0.59480
2785.76092	0.59461
2784.74050	0.59435
2783.72007	0.59406
2782.69964	0.59376
2781.67922	0.59347
2780.65879	0.59319
2779.63837	0.59298
2778.61794	0.59286
2777.59752	0.59279
2776.57709	0.59268
2775.55667	0.59256
2774.53624	0.59244
2773.51582	0.59230
2772.49539	0.59207
2771.47497	0.59179
2770.45454	0.59157
2769.43412	0.59142
2768.41369	0.59126
2767.39327	0.59109
2766.37284	0.59090
2765.35242	0.59073
2764.33199	0.59057
2763.31157	0.59040
2762.29114	0.59024
2761.27071	0.59012
2760.25029	0.58996
2759.22986	0.58979
2758.20944	0.58964
2757.18901	0.58951
2756.16859	0.58934
2755.14816	0.58912
2754.12774	0.58892
2753.10731	0.58881
2752.08689	0.58871
2751.06646	0.58858
2750.04604	0.58846
2749.02561	0.58833
2748.00519	0.58815
2746.98476	0.58796
2745.96434	0.58778
2744.94391	0.58764
2743.92349	0.58753
2742.90306	0.58742
2741.88264	0.58728
2740.86221	0.58711
2739.84178	0.58696
2738.82136	0.58686
2737.80093	0.58679
2736.78051	0.58672
2735.76008	0.58661
2734.73966	0.58647
2733.71923	0.58634
2732.69881	0.58621
2731.67838	0.58609
2730.65796	0.58597
2729.63753	0.58583
2728.61711	0.58572
2727.59668	0.58565
2726.57626	0.58557
2725.55583	0.58546
2724.53541	0.58532
2723.51498	0.58523
2722.49456	0.58516
2721.47413	0.58506
2720.45370	0.58495
2719.43328	0.58482
2718.41285	0.58470
2717.39243	0.58459
2716.37200	0.58448
2715.35158	0.58435
2714.33115	0.58424
2713.31073	0.58421
2712.29030	0.58418
2711.26988	0.58412
2710.24945	0.58404
2709.22903	0.58396
2708.20860	0.58389
2707.18818	0.58382
2706.16775	0.58376
2705.14733	0.58371
2704.12690	0.58365
2703.10648	0.58358
2702.08605	0.58351
2701.06563	0.58343
2700.04520	0.58337
2699.02477	0.58333
2698.00435	0.58330
2696.98392	0.58328
2695.96350	0.58327
2694.94307	0.58321
2693.92265	0.58314
2692.90222	0.58315
2691.88180	0.58316
2690.86137	0.58308
2689.84095	0.58300
2688.82052	0.58298
2687.80010	0.58297
2686.77967	0.58297
2685.75925	0.58297
2684.73882	0.58292
2683.71840	0.58287
2682.69797	0.58288
2681.67755	0.58298
2680.65712	0.58307
2679.63670	0.58309
2678.61627	0.58307
2677.59584	0.58309
2676.57542	0.58310
2675.55499	0.58309
2674.53457	0.58313
2673.51414	0.58320
2672.49372	0.58328
2671.47329	0.58336
2670.45287	0.58344
2669.43244	0.58355
2668.41202	0.58372
2667.39159	0.58396
2666.37117	0.58427
2665.35074	0.58466
2664.33032	0.58515
2663.30989	0.58583
2662.28947	0.58678
2661.26904	0.58802
2660.24862	0.58946
2659.22819	0.59111
2658.20776	0.59295
2657.18734	0.59489
2656.16691	0.59696
2655.14649	0.59923
2654.12606	0.60162
2653.10564	0.60400
2652.08521	0.60641
2651.06479	0.60894
2650.04436	0.61157
2649.02394	0.61417
2648.00351	0.61675
2646.98309	0.61935
2645.96266	0.62198
2644.94224	0.62467
2643.92181	0.62736
2642.90139	0.63002
2641.88096	0.63270
2640.86054	0.63543
2639.84011	0.63813
2638.81969	0.64075
2637.79926	0.64335
2636.77883	0.64591
2635.75841	0.64845
2634.73798	0.65099
2633.71756	0.65352
2632.69713	0.65604
2631.67671	0.65856
2630.65628	0.66106
2629.63586	0.66352
2628.61543	0.66596
2627.59501	0.66838
2626.57458	0.67072
2625.55416	0.67300
2624.53373	0.67529
2623.51331	0.67754
2622.49288	0.67971
2621.47246	0.68187
2620.45203	0.68402
2619.43161	0.68612
2618.41118	0.68818
2617.39076	0.69023
2616.37033	0.69228
2615.34990	0.69431
2614.32948	0.69630
2613.30905	0.69824
2612.28863	0.70013
2611.26820	0.70198
2610.24778	0.70382
2609.22735	0.70564
2608.20693	0.70739
2607.18650	0.70910
2606.16608	0.71077
2605.14565	0.71237
2604.12523	0.71399
2603.10480	0.71563
2602.08438	0.71724
2601.06395	0.71880
2600.04353	0.72034
2599.02310	0.72186
2598.00268	0.72335
2596.98225	0.72475
2595.96182	0.72607
2594.94140	0.72738
2593.92097	0.72875
2592.90055	0.73009
2591.88012	0.73139
2590.85970	0.73265
2589.83927	0.73383
2588.81885	0.73497
2587.79842	0.73612
2586.77800	0.73729
2585.75757	0.73839
2584.73715	0.73944
2583.71672	0.74054
2582.69630	0.74169
2581.67587	0.74279
2580.65545	0.74377
2579.63502	0.74470
2578.61460	0.74564
2577.59417	0.74661
2576.57375	0.74753
2575.55332	0.74833
2574.53289	0.74913
2573.51247	0.75002
2572.49204	0.75090
2571.47162	0.75170
2570.45119	0.75248
2569.43077	0.75325
2568.41034	0.75399
2567.38992	0.75471
2566.36949	0.75542
2565.34907	0.75610
2564.32864	0.75679
2563.30822	0.75748
2562.28779	0.75814
2561.26737	0.75873
2560.24694	0.75927
2559.22652	0.75982
2558.20609	0.76045
2557.18567	0.76108
2556.16524	0.76160
2555.14482	0.76209
2554.12439	0.76259
2553.10396	0.76308
2552.08354	0.76356
2551.06311	0.76403
2550.04269	0.76446
2549.02226	0.76484
2548.00184	0.76526
2546.98141	0.76572
2545.96099	0.76612
2544.94056	0.76648
2543.92014	0.76681
2542.89971	0.76711
2541.87929	0.76747
2540.85886	0.76786
2539.83844	0.76819
2538.81801	0.76846
2537.79759	0.76872
2536.77716	0.76896
2535.75674	0.76913
2534.73631	0.76931
2533.71588	0.76957
2532.69546	0.76990
2531.67503	0.77014
2530.65461	0.77029
2529.63418	0.77045
2528.61376	0.77066
2527.59333	0.77086
2526.57291	0.77103
2525.55248	0.77114
2524.53206	0.77120
2523.51163	0.77128
2522.49121	0.77140
2521.47078	0.77151
2520.45036	0.77160
2519.42993	0.77170
2518.40951	0.77183
2517.38908	0.77193
2516.36866	0.77201
2515.34823	0.77205
2514.32781	0.77206
2513.30738	0.77210
2512.28695	0.77214
2511.26653	0.77213
2510.24610	0.77213
2509.22568	0.77215
2508.20525	0.77219
2507.18483	0.77220
2506.16440	0.77210
2505.14398	0.77195
2504.12355	0.77191
2503.10313	0.77196
2502.08270	0.77201
2501.06228	0.77200
2500.04185	0.77195
2499.02143	0.77187
2498.00100	0.77183
2496.98058	0.77181
2495.96015	0.77174
2494.93973	0.77169
2493.91930	0.77168
2492.89888	0.77168
2491.87845	0.77171
2490.85802	0.77179
2489.83760	0.77179
2488.81717	0.77175
2487.79675	0.77177
2486.77632	0.77180
2485.75590	0.77174
2484.73547	0.77165
2483.71505	0.77154
2482.69462	0.77144
2481.67420	0.77132
2480.65377	0.77119
2479.63335	0.77111
2478.61292	0.77110
2477.59250	0.77110
2476.57207	0.77105
2475.55165	0.77101
2474.53122	0.77103
2473.51080	0.77102
2472.49037	0.77100
2471.46994	0.77103
2470.44952	0.77113
2469.42909	0.77128
2468.40867	0.77151
2467.38824	0.77179
2466.36782	0.77208
2465.34739	0.77238
2464.32697	0.77273
2463.30654	0.77317
2462.28612	0.77372
2461.26569	0.77437
2460.24527	0.77513
2459.22484	0.77596
2458.20442	0.77686
2457.18399	0.77781
2456.16357	0.77884
2455.14314	0.77993
2454.12272	0.78103
2453.10229	0.78216
2452.08187	0.78335
2451.06144	0.78457
2450.04101	0.78575
2449.02059	0.78690
2448.00016	0.78804
2446.97974	0.78912
2445.95931	0.79015
2444.93889	0.79113
2443.91846	0.79210
2442.89804	0.79309
2441.87761	0.79402
2440.85719	0.79487
2439.83676	0.79569
2438.81634	0.79649
2437.79591	0.79723
2436.77549	0.79795
2435.75506	0.79872
2434.73464	0.79947
2433.71421	0.80012
2432.69379	0.80067
2431.67336	0.80119
2430.65294	0.80174
2429.63251	0.80229
2428.61208	0.80280
2427.59166	0.80326
2426.57123	0.80371
2425.55081	0.80419
2424.53038	0.80466
2423.50996	0.80515
2422.48953	0.80574
2421.46911	0.80640
2420.44868	0.80708
2419.42826	0.80787
2418.40783	0.80895
2417.38741	0.81027
2416.36698	0.81180
2415.34656	0.81366
2414.32613	0.81586
2413.30571	0.81845
2412.28528	0.82154
2411.26486	0.82510
2410.24443	0.82908
2409.22401	0.83342
2408.20358	0.83802
2407.18315	0.84282
2406.16273	0.84773
2405.14230	0.85270
2404.12188	0.85777
2403.10145	0.86291
2402.08103	0.86813
2401.06060	0.87341
2400.04018	0.87876
2399.01975	0.88421
2397.99933	0.88977
2396.97890	0.89540
2395.95848	0.90105
2394.93805	0.90666
2393.91763	0.91226
2392.89720	0.91785
2391.87678	0.92342
2390.85635	0.92914
2389.83593	0.93511
2388.81550	0.94128
2387.79507	0.94745
2386.77465	0.95352
2385.75422	0.95944
2384.73380	0.96522
2383.71337	0.97087
2382.69295	0.97634
2381.67252	0.98159
2380.65210	0.98653
2379.63167	0.99104
2378.61125	0.99490
2377.59082	0.99819
2376.57040	1.00108
2375.54997	1.00347
2374.52955	1.00514
2373.50912	1.00602
2372.48870	1.00621
2371.46827	1.00579
2370.44785	1.00469
2369.42742	1.00269
2368.40700	0.99983
2367.38657	0.99617
2366.36614	0.99151
2365.34572	0.98548
2364.32529	0.97798
2363.30487	0.96888
2362.28444	0.95853
2361.26402	0.94787
2360.24359	0.93745
2359.22317	0.92702
2358.20274	0.91620
2357.18232	0.90552
2356.16189	0.89548
2355.14147	0.88543
2354.12104	0.87472
2353.10062	0.86416
2352.08019	0.85352
2351.05977	0.84209
2350.03934	0.83264
2349.01892	0.82860
2347.99849	0.82742
2346.97807	0.82242
2345.95764	0.81011
2344.93721	0.79294
2343.91679	0.77545
2342.89636	0.76053
2341.87594	0.74833
2340.85551	0.73747
2339.83509	0.72692
2338.81466	0.71732
2337.79424	0.70947
2336.77381	0.70195
2335.75339	0.69435
2334.73296	0.68859
2333.71254	0.68432
2332.69211	0.67984
2331.67169	0.67479
2330.65126	0.66960
2329.63084	0.66478
2328.61041	0.66095
2327.58999	0.65866
2326.56956	0.65838
2325.54913	0.66041
2324.52871	0.66443
2323.50828	0.66975
2322.48786	0.67560
2321.46743	0.68136
2320.44701	0.68680
2319.42658	0.69197
2318.40616	0.69694
2317.38573	0.70214
2316.36531	0.70770
2315.34488	0.71310
2314.32446	0.71802
2313.30403	0.72210
2312.28361	0.72561
2311.26318	0.72912
2310.24276	0.73288
2309.22233	0.73685
2308.20191	0.74090
2307.18148	0.74501
2306.16106	0.74911
2305.14063	0.75337
2304.12020	0.75782
2303.09978	0.76232
2302.07935	0.76665
2301.05893	0.77055
2300.03850	0.77351
2299.01808	0.77537
2297.99765	0.77646
2296.97723	0.77725
2295.95680	0.77824
2294.93638	0.77975
2293.91595	0.78191
2292.89553	0.78449
2291.87510	0.78744
2290.85468	0.79064
2289.83425	0.79398
2288.81383	0.79742
2287.79340	0.80090
2286.77298	0.80448
2285.75255	0.80815
2284.73213	0.81196
2283.71170	0.81580
2282.69127	0.81961
2281.67085	0.82317
2280.65042	0.82634
2279.63000	0.82918
2278.60957	0.83182
2277.58915	0.83436
2276.56872	0.83681
2275.54830	0.83916
2274.52787	0.84136
2273.50745	0.84353
2272.48702	0.84573
2271.46660	0.84787
2270.44617	0.84992
2269.42575	0.85192
2268.40532	0.85389
2267.38490	0.85576
2266.36447	0.85762
2265.34405	0.85942
2264.32362	0.86104
2263.30319	0.86247
2262.28277	0.86390
2261.26234	0.86536
2260.24192	0.86681
2259.22149	0.86835
2258.20107	0.86999
2257.18064	0.87165
2256.16022	0.87324
2255.13979	0.87477
2254.11937	0.87623
2253.09894	0.87754
2252.07852	0.87860
2251.05809	0.87956
2250.03767	0.88054
2249.01724	0.88159
2247.99682	0.88270
2246.97639	0.88386
2245.95597	0.88504
2244.93554	0.88624
2243.91512	0.88748
2242.89469	0.88873
2241.87426	0.88996
2240.85384	0.89114
2239.83341	0.89237
2238.81299	0.89367
2237.79256	0.89500
2236.77214	0.89626
2235.75171	0.89745
2234.73129	0.89866
2233.71086	0.89992
2232.69044	0.90119
2231.67001	0.90241
2230.64959	0.90356
2229.62916	0.90465
2228.60874	0.90575
2227.58831	0.90688
2226.56789	0.90800
2225.54746	0.90906
2224.52704	0.91013
2223.50661	0.91115
2222.48619	0.91208
2221.46576	0.91299
2220.44533	0.91390
2219.42491	0.91481
2218.40448	0.91573
2217.38406	0.91663
2216.36363	0.91751
2215.34321	0.91840
2214.32278	0.91922
2213.30236	0.92001
2212.28193	0.92077
2211.26151	0.92153
2210.24108	0.92234
2209.22066	0.92318
2208.20023	0.92396
2207.17981	0.92471
2206.15938	0.92544
2205.13896	0.92613
2204.11853	0.92682
2203.09811	0.92759
2202.07768	0.92843
2201.05725	0.92928
2200.03683	0.93010
2199.01640	0.93086
2197.99598	0.93163
2196.97555	0.93249
2195.95513	0.93342
2194.93470	0.93438
2193.91428	0.93534
2192.89385	0.93629
2191.87343	0.93729
2190.85300	0.93837
2189.83258	0.93943
2188.81215	0.94047
2187.79173	0.94157
2186.77130	0.94271
2185.75088	0.94389
2184.73045	0.94514
2183.71003	0.94637
2182.68960	0.94746
2181.66918	0.94833
2180.64875	0.94889
2179.62832	0.94909
2178.60790	0.94920
2177.58747	0.94960
2176.56705	0.95024
2175.54662	0.95086
2174.52620	0.95128
2173.50577	0.95150
2172.48535	0.95170
2171.46492	0.95204
2170.44450	0.95260
2169.42407	0.95347
2168.40365	0.95474
2167.38322	0.95638
2166.36280	0.95828
2165.34237	0.96029
2164.32195	0.96225
2163.30152	0.96414
2162.28110	0.96604
2161.26067	0.96809
2160.24025	0.97025
2159.21982	0.97200
2158.19939	0.97223
2157.17897	0.97048
2156.15854	0.96747
2155.13812	0.96409
2154.11769	0.96081
2153.09727	0.95784
2152.07684	0.95524
2151.05642	0.95295
2150.03599	0.95087
2149.01557	0.94891
2147.99514	0.94702
2146.97472	0.94514
2145.95429	0.94320
2144.93387	0.94108
2143.91344	0.93873
2142.89302	0.93629
2141.87259	0.93399
2140.85217	0.93189
2139.83174	0.92982
2138.81131	0.92767
2137.79089	0.92553
2136.77046	0.92331
2135.75004	0.92080
2134.72961	0.91794
2133.70919	0.91473
2132.68876	0.91104
2131.66834	0.90704
2130.64791	0.90314
2129.62749	0.89954
2128.60706	0.89624
2127.58664	0.89323
2126.56621	0.89053
2125.54579	0.88813
2124.52536	0.88594
2123.50494	0.88398
2122.48451	0.88230
2121.46409	0.88085
2120.44366	0.87962
2119.42324	0.87861
2118.40281	0.87774
2117.38238	0.87709
2116.36196	0.87684
2115.34153	0.87679
2114.32111	0.87671
2113.30068	0.87690
2112.28026	0.87746
2111.25983	0.87809
2110.23941	0.87870
2109.21898	0.87929
2108.19856	0.87986
2107.17813	0.88041
2106.15771	0.88096
2105.13728	0.88150
2104.11686	0.88205
2103.09643	0.88259
2102.07601	0.88314
2101.05558	0.88370
2100.03516	0.88426
2099.01473	0.88484
2097.99431	0.88541
2096.97388	0.88586
2095.95345	0.88616
2094.93303	0.88614
2093.91260	0.88554
2092.89218	0.88459
2091.87175	0.88391
2090.85133	0.88355
2089.83090	0.88304
2088.81048	0.88272
2087.79005	0.88307
2086.76963	0.88374
2085.74920	0.88449
2084.72878	0.88545
2083.70835	0.88658
2082.68793	0.88777
2081.66750	0.88900
2080.64708	0.89038
2079.62665	0.89193
2078.60623	0.89351
2077.58580	0.89502
2076.56537	0.89657
2075.54495	0.89823
2074.52452	0.89982
2073.50410	0.90122
2072.48367	0.90257
2071.46325	0.90394
2070.44282	0.90531
2069.42240	0.90666
2068.40197	0.90800
2067.38155	0.90953
2066.36112	0.91143
2065.34070	0.91270
2064.32027	0.91272
2063.29985	0.91297
2062.27942	0.91433
2061.25900	0.91593
2060.23857	0.91710
2059.21815	0.91808
2058.19772	0.91925
2057.17730	0.92062
2056.15687	0.92220
2055.13644	0.92400
2054.11602	0.92585
2053.09559	0.92751
2052.07517	0.92934
2051.05474	0.93230
2050.03432	0.93654
2049.01389	0.94084
2047.99347	0.94410
2046.97304	0.94638
2045.95262	0.94818
2044.93219	0.94985
2043.91177	0.95140
2042.89134	0.95313
2041.87092	0.95482
2040.85049	0.95557
2039.83007	0.95621
2038.80964	0.95782
2037.78922	0.95982
2036.76879	0.96160
2035.74837	0.96327
2034.72794	0.96476
2033.70751	0.96585
2032.68709	0.96656
2031.66666	0.96703
2030.64624	0.96726
2029.62581	0.96730
2028.60539	0.96732
2027.58496	0.96737
2026.56454	0.96729
2025.54411	0.96707
2024.52369	0.96700
2023.50326	0.96701
2022.48284	0.96679
2021.46241	0.96644
2020.44199	0.96650
2019.42156	0.96703
2018.40114	0.96773
2017.38071	0.96756
2016.36029	0.96556
2015.33986	0.96367
2014.31943	0.96355
2013.29901	0.96397
2012.27858	0.96398
2011.25816	0.96384
2010.23773	0.96378
2009.21731	0.96376
2008.19688	0.96362
2007.17646	0.96308
2006.15603	0.96189
2005.13561	0.96007
2004.11518	0.95795
2003.09476	0.95599
2002.07433	0.95439
2001.05391	0.95312
2000.03348	0.95214
1999.01306	0.95123
1997.99263	0.95032
1996.97221	0.94978
1995.95178	0.94968
1994.93136	0.95013
1993.91093	0.95209
1992.89050	0.95446
1991.87008	0.95264
1990.84965	0.94867
1989.82923	0.94886
1988.80880	0.95118
1987.78838	0.95156
1986.76795	0.95142
1985.74753	0.95242
1984.72710	0.95381
1983.70668	0.95515
1982.68625	0.95658
1981.66583	0.95820
1980.64540	0.96016
1979.62498	0.96263
1978.60455	0.96540
1977.58413	0.96762
1976.56370	0.96849
1975.54328	0.96809
1974.52285	0.96711
1973.50243	0.96604
1972.48200	0.96492
1971.46157	0.96373
1970.44115	0.96268
1969.42072	0.96265
1968.40030	0.96360
1967.37987	0.96229
1966.35945	0.95780
1965.33902	0.95433
1964.31860	0.95339
1963.29817	0.95319
1962.27775	0.95254
1961.25732	0.95110
1960.23690	0.94905
1959.21647	0.94679
1958.19605	0.94434
1957.17562	0.94183
1956.15520	0.93957
1955.13477	0.93711
1954.11435	0.93435
1953.09392	0.93212
1952.07349	0.93054
1951.05307	0.92908
1950.03264	0.92753
1949.01222	0.92586
1947.99179	0.92456
1946.97137	0.92363
1945.95094	0.92176
1944.93052	0.92010
1943.91009	0.92183
1942.88967	0.92153
1941.86924	0.91315
1940.84882	0.90624
1939.82839	0.90553
1938.80797	0.90588
1937.78754	0.90490
1936.76712	0.90310
1935.74669	0.90113
1934.72627	0.89934
1933.70584	0.89744
1932.68542	0.89510
1931.66499	0.89269
1930.64456	0.89065
1929.62414	0.88877
1928.60371	0.88680
1927.58329	0.88467
1926.56286	0.88260
1925.54244	0.88151
1924.52201	0.88280
1923.50159	0.88306
1922.48116	0.87660
1921.46074	0.86914
1920.44031	0.86876
1919.41989	0.87432
1918.39946	0.87572
1917.37904	0.86623
1916.35861	0.85886
1915.33819	0.85918
1914.31776	0.86049
1913.29734	0.86014
1912.27691	0.85973
1911.25649	0.86044
1910.23606	0.85981
1909.21563	0.85631
1908.19521	0.85265
1907.17478	0.85003
1906.15436	0.84872
1905.13393	0.84836
1904.11351	0.84733
1903.09308	0.84571
1902.07266	0.84428
1901.05223	0.84282
1900.03181	0.84132
1899.01138	0.83999
1897.99096	0.83896
1896.97053	0.83917
1895.95011	0.83949
1894.92968	0.83613
1893.90926	0.83124
1892.88883	0.82951
1891.86841	0.83125
1890.84798	0.83542
1889.82755	0.83455
1888.80713	0.82485
1887.78670	0.81878
1886.76628	0.81971
1885.74585	0.82132
1884.72543	0.82053
1883.70500	0.81810
1882.68458	0.81612
1881.66415	0.81503
1880.64373	0.81407
1879.62330	0.81271
1878.60288	0.81098
1877.58245	0.80942
1876.56203	0.80805
1875.54160	0.80661
1874.52118	0.80519
1873.50075	0.80407
1872.48033	0.80393
1871.45990	0.80691
1870.43948	0.81320
1869.41905	0.81392
1868.39862	0.80284
1867.37820	0.79210
1866.35777	0.78797
1865.33735	0.78746
1864.31692	0.78849
1863.29650	0.78950
1862.27607	0.78950
1861.25565	0.78820
1860.23522	0.78655
1859.21480	0.78526
1858.19437	0.78344
1857.17395	0.78135
1856.15352	0.77995
1855.13310	0.77881
1854.11267	0.77756
1853.09225	0.77616
1852.07182	0.77463
1851.05140	0.77325
1850.03097	0.77328
1849.01055	0.77478
1847.99012	0.77341
1846.96969	0.77032
1845.94927	0.77587
1844.92884	0.78330
1843.90842	0.76864
1842.88799	0.75009
1841.86757	0.74826
1840.84714	0.75178
1839.82672	0.75388
1838.80629	0.75539
1837.78587	0.75523
1836.76544	0.75113
1835.74502	0.74675
1834.72459	0.74572
1833.70417	0.74544
1832.68374	0.74555
1831.66332	0.75141
1830.64289	0.75863
1829.62247	0.74781
1828.60204	0.72923
1827.58161	0.72792
1826.56119	0.73872
1825.54076	0.74232
1824.52034	0.73018
1823.49991	0.72244
1822.47949	0.72350
1821.45906	0.72454
1820.43864	0.72412
1819.41821	0.72376
1818.39779	0.72293
1817.37736	0.71864
1816.35694	0.71180
1815.33651	0.70659
1814.31609	0.70406
1813.29566	0.70347
1812.27524	0.70422
1811.25481	0.70205
1810.23439	0.69343
1809.21396	0.68713
1808.19354	0.68672
1807.17311	0.68559
1806.15268	0.68351
1805.13226	0.68308
1804.11183	0.68505
1803.09141	0.68827
1802.07098	0.68723
1801.05056	0.68395
1800.03013	0.68021
1799.00971	0.67237
1797.98928	0.66983
1796.96886	0.67492
1795.94843	0.67605
1794.92801	0.67559
1793.90758	0.68452
1792.88716	0.69011
1791.86673	0.67514
1790.84631	0.65902
1789.82588	0.65506
1788.80546	0.65830
1787.78503	0.66273
1786.76461	0.66742
1785.74418	0.67125
1784.72375	0.66682
1783.70333	0.65974
1782.68290	0.66208
1781.66248	0.66928
1780.64205	0.66801
1779.62163	0.65920
1778.60120	0.65563
1777.58078	0.65919
1776.56035	0.66453
1775.53993	0.66494
1774.51950	0.66783
1773.49908	0.68058
1772.47865	0.68019
1771.45823	0.65332
1770.43780	0.64126
1769.41738	0.65118
1768.39695	0.65833
1767.37653	0.64907
1766.35610	0.64417
1765.33567	0.64866
1764.31525	0.65528
1763.29482	0.66534
1762.27440	0.66956
1761.25397	0.65414
1760.23355	0.64364
1759.21312	0.64989
1758.19270	0.66109
1757.17227	0.66348
1756.15185	0.65232
1755.13142	0.64649
1754.11100	0.65257
1753.09057	0.66574
1752.07015	0.67869
1751.04972	0.67285
1750.02930	0.66082
1749.00887	0.66102
1747.98845	0.65900
1746.96802	0.65355
1745.94760	0.65406
1744.92717	0.66157
1743.90674	0.66709
1742.88632	0.66096
1741.86589	0.65981
1740.84547	0.67190
1739.82504	0.67209
1738.80462	0.65560
1737.78419	0.65273
1736.76377	0.66511
1735.74334	0.68893
1734.72292	0.70886
1733.70249	0.67595
1732.68207	0.64238
1731.66164	0.64870
1730.64122	0.66343
1729.62079	0.66226
1728.60037	0.65541
1727.57994	0.65726
1726.55952	0.66144
1725.53909	0.66458
1724.51867	0.66776
1723.49824	0.66707
1722.47781	0.66286
1721.45739	0.66323
1720.43696	0.67348
1719.41654	0.69433
1718.39611	0.70606
1717.37569	0.67707
1716.35526	0.65763
1715.33484	0.66056
1714.31441	0.65616
1713.29399	0.64915
1712.27356	0.65284
1711.25314	0.66104
1710.23271	0.66318
1709.21229	0.66063
1708.19186	0.66617
1707.17144	0.67653
1706.15101	0.67543
1705.13059	0.66432
1704.11016	0.65473
1703.08974	0.65693
1702.06931	0.68075
1701.04888	0.71408
1700.02846	0.67827
1699.00803	0.63272
1697.98761	0.64592
1696.96718	0.67591
1695.94676	0.67283
1694.92633	0.63469
1693.90591	0.62803
1692.88548	0.63928
1691.86506	0.65019
1690.84463	0.65706
1689.82421	0.65759
1688.80378	0.65270
1687.78336	0.64871
1686.76293	0.65790
1685.74251	0.68658
1684.72208	0.70537
1683.70166	0.64875
1682.68123	0.61526
1681.66080	0.62576
1680.64038	0.63990
1679.61995	0.63803
1678.59953	0.63353
1677.57910	0.64151
1676.55868	0.65926
1675.53825	0.66047
1674.51783	0.63112
1673.49740	0.62449
1672.47698	0.63928
1671.45655	0.64995
1670.43613	0.65346
1669.41570	0.64650
1668.39528	0.62299
1667.37485	0.61409
1666.35443	0.62084
1665.33400	0.63028
1664.31358	0.64176
1663.29315	0.64721
1662.27273	0.63134
1661.25230	0.61695
1660.23187	0.61809
1659.21145	0.62323
1658.19102	0.62674
1657.17060	0.63030
1656.15017	0.64127
1655.12975	0.66720
1654.10932	0.70187
1653.08890	0.66474
1652.06847	0.58742
1651.04805	0.58607
1650.02762	0.60943
1649.00720	0.63619
1647.98677	0.65260
1646.96635	0.64369
1645.94592	0.61299
1644.92550	0.59530
1643.90507	0.59988
1642.88465	0.60971
1641.86422	0.61421
1640.84380	0.61487
1639.82337	0.61674
1638.80294	0.62387
1637.78252	0.63462
1636.76209	0.64597
1635.74167	0.63749
1634.72124	0.59582
1633.70082	0.58326
1632.68039	0.59353
1631.65997	0.60273
1630.63954	0.60676
1629.61912	0.61214
1628.59869	0.61716
1627.57827	0.60897
1626.55784	0.59828
1625.53742	0.60387
1624.51699	0.61845
1623.49657	0.61551
1622.47614	0.59401
1621.45572	0.58756
1620.43529	0.59286
1619.41486	0.60039
1618.39444	0.61457
1617.37401	0.62664
1616.35359	0.60102
1615.33316	0.57508
1614.31274	0.57752
1613.29231	0.58555
1612.27189	0.58904
1611.25146	0.59115
1610.23104	0.59270
1609.21061	0.59007
1608.19019	0.58642
1607.16976	0.58438
1606.14934	0.58200
1605.12891	0.58175
1604.10849	0.58356
1603.08806	0.58295
1602.06764	0.58008
1601.04721	0.57769
1600.02679	0.57628
1599.00636	0.57591
1597.98593	0.57631
1596.96551	0.57674
1595.94508	0.57675
1594.92466	0.57515
1593.90423	0.57170
1592.88381	0.56974
1591.86338	0.56991
1590.84296	0.56963
1589.82253	0.56810
1588.80211	0.56633
1587.78168	0.56539
1586.76126	0.56496
1585.74083	0.56430
1584.72041	0.56361
1583.69998	0.56299
1582.67956	0.56208
1581.65913	0.56110
1580.63871	0.56072
1579.61828	0.56219
1578.59786	0.56954
1577.57743	0.58584
1576.55700	0.58831
1575.53658	0.55235
1574.51615	0.53654
1573.49573	0.54416
1572.47530	0.55401
1571.45488	0.56651
1570.43445	0.58018
1569.41403	0.56665
1568.39360	0.54034
1567.37318	0.54005
1566.35275	0.55327
1565.33233	0.56007
1564.31190	0.55203
1563.29148	0.54718
1562.27105	0.55935
1561.25063	0.58839
1560.23020	0.62630
1559.20978	0.62148
1558.18935	0.54256
1557.16892	0.51393
1556.14850	0.53009
1555.12807	0.55343
1554.10765	0.55044
1553.08722	0.53583
1552.06680	0.54214
1551.04637	0.55794
1550.02595	0.55778
1549.00552	0.54213
1547.98510	0.53991
1546.96467	0.55329
1545.94425	0.56929
1544.92382	0.56978
1543.90340	0.56407
1542.88297	0.57118
1541.86255	0.57718
1540.84212	0.58176
1539.82170	0.57550
1538.80127	0.53188
1537.78085	0.51793
1536.76042	0.53142
1535.73999	0.55201
1534.71957	0.57161
1533.69914	0.57022
1532.67872	0.54537
1531.65829	0.53596
1530.63787	0.54195
1529.61744	0.55407
1528.59702	0.56378
1527.57659	0.56351
1526.55617	0.56280
1525.53574	0.56002
1524.51532	0.55498
1523.49489	0.56538
1522.47447	0.58559
1521.45404	0.58055
1520.43362	0.54558
1519.41319	0.53892
1518.39277	0.56011
1517.37234	0.57536
1516.35192	0.55782
1515.33149	0.54381
1514.31106	0.54741
1513.29064	0.55829
1512.27021	0.56293
1511.24979	0.56212
1510.22936	0.57052
1509.20894	0.58619
1508.18851	0.60369
1507.16809	0.60757
1506.14766	0.55886
1505.12724	0.52620
1504.10681	0.53186
1503.08639	0.54755
1502.06596	0.55788
1501.04554	0.56209
1500.02511	0.56931
1499.00469	0.57203
1497.98426	0.56765
1496.96384	0.56844
1495.94341	0.55801
1494.92298	0.54486
1493.90256	0.54847
1492.88213	0.56004
1491.86171	0.57534
1490.84128	0.58621
1489.82086	0.57269
1488.80043	0.55723
1487.78001	0.55654
1486.75958	0.55301
1485.73916	0.54861
1484.71873	0.55121
1483.69831	0.55616
1482.67788	0.56083
1481.65746	0.56200
1480.63703	0.55725
1479.61661	0.55419
1478.59618	0.55860
1477.57576	0.56898
1476.55533	0.57214
1475.53491	0.56360
1474.51448	0.56824
1473.49405	0.58189
1472.47363	0.56996
1471.45320	0.54275
1470.43278	0.53766
1469.41235	0.54625
1468.39193	0.55368
1467.37150	0.55890
1466.35108	0.56823
1465.33065	0.57157
1464.31023	0.55415
1463.28980	0.54360
1462.26938	0.54868
1461.24895	0.55754
1460.22853	0.57016
1459.20810	0.58600
1458.18768	0.59596
1457.16725	0.57963
1456.14683	0.54416
1455.12640	0.53314
1454.10598	0.54049
1453.08555	0.55082
1452.06512	0.55486
1451.04470	0.55312
1450.02427	0.55650
1449.00385	0.56528
1447.98342	0.56357
1446.96300	0.55187
1445.94257	0.54961
1444.92215	0.55414
1443.90172	0.55713
1442.88130	0.55861
1441.86087	0.55973
1440.84045	0.56117
1439.82002	0.56400
1438.79960	0.57312
1437.77917	0.58916
1436.75875	0.58394
1435.73832	0.55529
1434.71790	0.55227
1433.69747	0.56224
1432.67704	0.56715
1431.65662	0.57106
1430.63619	0.57535
1429.61577	0.56999
1428.59534	0.56206
1427.57492	0.56219
1426.55449	0.56604
1425.53407	0.57240
1424.51364	0.57637
1423.49322	0.56821
1422.47279	0.56152
1421.45237	0.57092
1420.43194	0.58995
1419.41152	0.59015
1418.39109	0.56516
1417.37067	0.55678
1416.35024	0.55944
1415.32982	0.56197
1414.30939	0.56514
1413.28897	0.56862
1412.26854	0.57060
1411.24811	0.57008
1410.22769	0.56903
1409.20726	0.56904
1408.18684	0.57031
1407.16641	0.57472
1406.14599	0.58204
1405.12556	0.58126
1404.10514	0.57054
1403.08471	0.56693
1402.06429	0.57116
1401.04386	0.57884
1400.02344	0.58718
1399.00301	0.58393
1397.98259	0.57387
1396.96216	0.57647
1395.94174	0.58692
1394.92131	0.58572
1393.90089	0.57113
1392.88046	0.56696
1391.86004	0.57299
1390.83961	0.57755
1389.81918	0.58104
1388.79876	0.58870
1387.77833	0.59161
1386.75791	0.58053
1385.73748	0.57360
1384.71706	0.57681
1383.69663	0.58084
1382.67621	0.58250
1381.65578	0.58357
1380.63536	0.58530
1379.61493	0.58711
1378.59451	0.58761
1377.57408	0.58748
1376.55366	0.59106
1375.53323	0.59793
1374.51281	0.59824
1373.49238	0.58897
1372.47196	0.58392
1371.45153	0.58729
1370.43110	0.59297
1369.41068	0.59658
1368.39025	0.59515
1367.36983	0.59249
1366.34940	0.59374
1365.32898	0.59887
1364.30855	0.60709
1363.28813	0.60934
1362.26770	0.60136
1361.24728	0.59581
1360.22685	0.59527
1359.20643	0.59772
1358.18600	0.60098
1357.16558	0.60268
1356.14515	0.60459
1355.12473	0.60580
1354.10430	0.60497
1353.08388	0.60492
1352.06345	0.60648
1351.04303	0.60832
1350.02260	0.60975
1349.00217	0.61000
1347.98175	0.61003
1346.96132	0.61114
1345.94090	0.61252
1344.92047	0.61366
1343.90005	0.61470
1342.87962	0.61680
1341.85920	0.62210
1340.83877	0.62827
1339.81835	0.62816
1338.79792	0.62315
1337.77750	0.62179
1336.75707	0.62375
1335.73665	0.62549
1334.71622	0.62788
1333.69580	0.63097
1332.67537	0.63285
1331.65495	0.63336
1330.63452	0.63285
1329.61410	0.63178
1328.59367	0.63083
1327.57324	0.63039
1326.55282	0.63024
1325.53239	0.63016
1324.51197	0.63016
1323.49154	0.63004
1322.47112	0.63019
1321.45069	0.63121
1320.43027	0.63277
1319.40984	0.63274
1318.38942	0.63089
1317.36899	0.62953
1316.34857	0.62916
1315.32814	0.62969
1314.30772	0.63081
1313.28729	0.63075
1312.26687	0.62904
1311.24644	0.62791
1310.22602	0.62854
1309.20559	0.62946
1308.18516	0.62931
1307.16474	0.62863
1306.14431	0.62839
1305.12389	0.62840
1304.10346	0.62829
1303.08304	0.62815
1302.06261	0.62800
1301.04219	0.62787
1300.02176	0.62774
1299.00134	0.62761
1297.98091	0.62757
1296.96049	0.62726
1295.94006	0.62659
1294.91964	0.62611
1293.89921	0.62597
1292.87879	0.62584
1291.85836	0.62568
1290.83794	0.62536
1289.81751	0.62508
1288.79709	0.62503
1287.77666	0.62434
1286.75623	0.62301
1285.73581	0.62230
1284.71538	0.62211
1283.69496	0.62170
1282.67453	0.62117
1281.65411	0.62077
1280.63368	0.62031
1279.61326	0.61961
1278.59283	0.61891
1277.57241	0.61838
1276.55198	0.61785
1275.53156	0.61729
1274.51113	0.61687
1273.49071	0.61686
1272.47028	0.61678
1271.44986	0.61583
1270.42943	0.61469
1269.40901	0.61401
1268.38858	0.61347
1267.36816	0.61301
1266.34773	0.61255
1265.32730	0.61194
1264.30688	0.61134
1263.28645	0.61086
1262.26603	0.61068
1261.24560	0.61061
1260.22518	0.60971
1259.20475	0.60835
1258.18433	0.60769
1257.16390	0.60747
1256.14348	0.60716
1255.12305	0.60683
1254.10263	0.60657
1253.08220	0.60637
1252.06178	0.60612
1251.04135	0.60584
1250.02093	0.60557
1249.00050	0.60528
1247.98008	0.60499
1246.95965	0.60474
1245.93922	0.60456
1244.91880	0.60434
1243.89837	0.60381
1242.87795	0.60311
1241.85752	0.60257
1240.83710	0.60217
1239.81667	0.60174
1238.79625	0.60121
1237.77582	0.60060
1236.75540	0.59998
1235.73497	0.59934
1234.71455	0.59865
1233.69412	0.59794
1232.67370	0.59725
1231.65327	0.59659
1230.63285	0.59594
1229.61242	0.59528
1228.59200	0.59471
1227.57157	0.59430
1226.55115	0.59404
1225.53072	0.59369
1224.51029	0.59308
1223.48987	0.59250
1222.46944	0.59212
1221.44902	0.59176
1220.42859	0.59139
1219.40817	0.59099
1218.38774	0.59051
1217.36732	0.59007
1216.34689	0.58974
1215.32647	0.58940
1214.30604	0.58912
1213.28562	0.58900
1212.26519	0.58871
1211.24477	0.58819
1210.22434	0.58782
1209.20392	0.58767
1208.18349	0.58755
1207.16307	0.58740
1206.14264	0.58724
1205.12222	0.58711
1204.10179	0.58701
1203.08136	0.58688
1202.06094	0.58674
1201.04051	0.58663
1200.02009	0.58661
1198.99966	0.58666
1197.97924	0.58661
1196.95881	0.58648
1195.93839	0.58642
1194.91796	0.58642
1193.89754	0.58640
1192.87711	0.58638
1191.85669	0.58643
1190.83626	0.58653
1189.81584	0.58666
1188.79541	0.58681
1187.77499	0.58698
1186.75456	0.58701
1185.73414	0.58702
1184.71371	0.58722
1183.69328	0.58750
1182.67286	0.58775
1181.65243	0.58799
1180.63201	0.58822
1179.61158	0.58845
1178.59116	0.58867
1177.57073	0.58886
1176.55031	0.58910
1175.52988	0.58943
1174.50946	0.58960
1173.48903	0.58957
1172.46861	0.58963
1171.44818	0.58982
1170.42776	0.59002
1169.40733	0.59017
1168.38691	0.59021
1167.36648	0.59022
1166.34606	0.59025
1165.32563	0.59026
1164.30521	0.59024
1163.28478	0.59027
1162.26435	0.59031
1161.24393	0.59033
1160.22350	0.59040
1159.20308	0.59053
1158.18265	0.59060
1157.16223	0.59054
1156.14180	0.59046
1155.12138	0.59046
1154.10095	0.59054
1153.08053	0.59066
1152.06010	0.59072
1151.03968	0.59076
1150.01925	0.59082
1148.99883	0.59084
1147.97840	0.59086
1146.95798	0.59094
1145.93755	0.59103
1144.91713	0.59114
1143.89670	0.59124
1142.87628	0.59133
1141.85585	0.59143
1140.83542	0.59151
1139.81500	0.59155
1138.79457	0.59164
1137.77415	0.59179
1136.75372	0.59190
1135.73330	0.59191
1134.71287	0.59181
1133.69245	0.59169
1132.67202	0.59163
1131.65160	0.59156
1130.63117	0.59144
1129.61075	0.59133
1128.59032	0.59130
1127.56990	0.59130
1126.54947	0.59127
1125.52905	0.59120
1124.50862	0.59110
1123.48820	0.59105
1122.46777	0.59110
1121.44734	0.59110
1120.42692	0.59099
1119.40649	0.59092
1118.38607	0.59094
1117.36564	0.59091
1116.34522	0.59082
1115.32479	0.59072
1114.30437	0.59063
1113.28394	0.59058
1112.26352	0.59051
1111.24309	0.59038
1110.22267	0.59022
1109.20224	0.59013
1108.18182	0.59006
1107.16139	0.59000
1106.14097	0.58991
1105.12054	0.58980
1104.10012	0.58975
1103.07969	0.58982
1102.05927	0.58998
1101.03884	0.59013
1100.01841	0.59025
1098.99799	0.59032
1097.97756	0.59032
1096.95714	0.59030
1095.93671	0.59031
1094.91629	0.59030
1093.89586	0.59025
1092.87544	0.59023
1091.85501	0.59027
1090.83459	0.59034
1089.81416	0.59042
1088.79374	0.59048
1087.77331	0.59046
1086.75289	0.59038
1085.73246	0.59034
1084.71204	0.59035
1083.69161	0.59029
1082.67119	0.59016
1081.65076	0.59001
1080.63034	0.58987
1079.60991	0.58977
1078.58948	0.58970
1077.56906	0.58961
1076.54863	0.58952
1075.52821	0.58948
1074.50778	0.58950
1073.48736	0.58955
1072.46693	0.58961
1071.44651	0.58966
1070.42608	0.58974
1069.40566	0.58989
1068.38523	0.59006
1067.36481	0.59016
1066.34438	0.59020
1065.32396	0.59022
1064.30353	0.59024
1063.28311	0.59029
1062.26268	0.59028
1061.24226	0.59016
1060.22183	0.58993
1059.20140	0.58971
1058.18098	0.58952
1057.16055	0.58932
1056.14013	0.58909
1055.11970	0.58883
1054.09928	0.58851
1053.07885	0.58821
1052.05843	0.58790
1051.03800	0.58749
1050.01758	0.58704
1048.99715	0.58663
1047.97673	0.58625
1046.95630	0.58591
1045.93588	0.58557
1044.91545	0.58511
1043.89503	0.58459
1042.87460	0.58415
1041.85418	0.58375
1040.83375	0.58333
1039.81333	0.58291
1038.79290	0.58244
1037.77247	0.58195
1036.75205	0.58147
1035.73162	0.58103
1034.71120	0.58053
1033.69077	0.57996
1032.67035	0.57938
1031.64992	0.57881
1030.62950	0.57823
1029.60907	0.57753
1028.58865	0.57676
1027.56822	0.57608
1026.54780	0.57546
1025.52737	0.57478
1024.50695	0.57405
1023.48652	0.57329
1022.46610	0.57255
1021.44567	0.57184
1020.42525	0.57111
1019.40482	0.57030
1018.38440	0.56950
1017.36397	0.56873
1016.34354	0.56798
1015.32312	0.56724
1014.30269	0.56645
1013.28227	0.56561
1012.26184	0.56481
1011.24142	0.56409
1010.22099	0.56338
1009.20057	0.56262
1008.18014	0.56184
1007.15972	0.56106
1006.13929	0.56032
1005.11887	0.55970
1004.09844	0.55910
1003.07802	0.55842
1002.05759	0.55779
1001.03717	0.55725
1000.01674	0.55671
998.99632	0.55609
997.97589	0.55543
996.95547	0.55479
995.93504	0.55422
994.91461	0.55373
993.89419	0.55325
992.87376	0.55270
991.85334	0.55209
990.83291	0.55147
989.81249	0.55093
988.79206	0.55044
987.77164	0.54992
986.75121	0.54937
985.73079	0.54879
984.71036	0.54822
983.68994	0.54772
982.66951	0.54722
981.64909	0.54666
980.62866	0.54608
979.60824	0.54555
978.58781	0.54511
977.56739	0.54467
976.54696	0.54410
975.52653	0.54340
974.50611	0.54276
973.48568	0.54222
972.46526	0.54169
971.44483	0.54112
970.42441	0.54053
969.40398	0.53993
968.38356	0.53938
967.36313	0.53889
966.34271	0.53839
965.32228	0.53782
964.30186	0.53723
963.28143	0.53668
962.26101	0.53616
961.24058	0.53560
960.22016	0.53498
959.19973	0.53432
958.17931	0.53373
957.15888	0.53325
956.13846	0.53278
955.11803	0.53226
954.09760	0.53166
953.07718	0.53106
952.05675	0.53053
951.03633	0.53006
950.01590	0.52953
948.99548	0.52895
947.97505	0.52840
946.95463	0.52793
945.93420	0.52746
944.91378	0.52693
943.89335	0.52633
942.87293	0.52574
941.85250	0.52522
940.83208	0.52473
939.81165	0.52423
938.79123	0.52368
937.77080	0.52313
936.75038	0.52265
935.72995	0.52219
934.70953	0.52164
933.68910	0.52106
932.66867	0.52059
931.64825	0.52020
930.62782	0.51979
929.60740	0.51934
928.58697	0.51879
927.56655	0.51824
926.54612	0.51778
925.52570	0.51738
924.50527	0.51693
923.48485	0.51649
922.46442	0.51609
921.44400	0.51567
920.42357	0.51529
919.40315	0.51496
918.38272	0.51458
917.36230	0.51417
916.34187	0.51379
915.32145	0.51340
914.30102	0.51305
913.28059	0.51272
912.26017	0.51232
911.23974	0.51196
910.21932	0.51170
909.19889	0.51147
908.17847	0.51122
907.15804	0.51098
906.13762	0.51072
905.11719	0.51044
904.09677	0.51023
903.07634	0.50999
902.05592	0.50965
901.03549	0.50933
900.01507	0.50909
898.99464	0.50892
897.97422	0.50883
896.95379	0.50870
895.93337	0.50844
894.91294	0.50818
893.89252	0.50800
892.87209	0.50783
891.85166	0.50765
890.83124	0.50746
889.81081	0.50725
888.79039	0.50714
887.76996	0.50704
886.74954	0.50673
885.72911	0.50638
884.70869	0.50621
883.68826	0.50613
882.66784	0.50606
881.64741	0.50599
880.62699	0.50581
879.60656	0.50553
878.58614	0.50531
877.56571	0.50521
876.54529	0.50514
875.52486	0.50502
874.50444	0.50481
873.48401	0.50463
872.46359	0.50453
871.44316	0.50448
870.42273	0.50443
869.40231	0.50438
868.38188	0.50423
867.36146	0.50404
866.34103	0.50395
865.32061	0.50384
864.30018	0.50359
863.27976	0.50336
862.25933	0.50322
861.23891	0.50309
860.21848	0.50301
859.19806	0.50287
858.17763	0.50260
857.15721	0.50238
856.13678	0.50234
855.11636	0.50233
854.09593	0.50215
853.07551	0.50191
852.05508	0.50170
851.03465	0.50152
850.01423	0.50137
848.99380	0.50120
847.97338	0.50105
846.95295	0.50096
845.93253	0.50086
844.91210	0.50071
843.89168	0.50054
842.87125	0.50030
841.85083	0.50008
840.83040	0.49995
839.80998	0.49989
838.78955	0.49981
837.76913	0.49961
836.74870	0.49934
835.72828	0.49927
834.70785	0.49950
833.68743	0.49967
832.66700	0.49960
831.64658	0.49955
830.62615	0.49967
829.60572	0.49986
828.58530	0.50011
827.56487	0.50035
826.54445	0.50062
825.52402	0.50101
824.50360	0.50148
823.48317	0.50193
822.46275	0.50248
821.44232	0.50312
820.42190	0.50367
819.40147	0.50428
818.38105	0.50509
817.36062	0.50594
816.34020	0.50675
815.31977	0.50764
814.29935	0.50859
813.27892	0.50962
812.25850	0.51065
811.23807	0.51149
810.21765	0.51228
809.19722	0.51321
808.17679	0.51420
807.15637	0.51516
806.13594	0.51609
805.11552	0.51695
804.09509	0.51776
803.07467	0.51849
802.05424	0.51889
801.03382	0.51882
800.01339	0.51829
798.99297	0.51729
797.97254	0.51588
796.95212	0.51431
795.93169	0.51249
794.91127	0.51031
793.89084	0.50807
792.87042	0.50594
791.84999	0.50392
790.82957	0.50212
789.80914	0.50052
788.78871	0.49903
787.76829	0.49774
786.74786	0.49674
785.72744	0.49593
784.70701	0.49512
783.68659	0.49431
782.66616	0.49360
781.64574	0.49304
780.62531	0.49258
779.60489	0.49203
778.58446	0.49144
777.56404	0.49102
776.54361	0.49069
775.52319	0.49036
774.50276	0.49006
773.48234	0.48970
772.46191	0.48929
771.44149	0.48900
770.42106	0.48883
769.40064	0.48863
768.38021	0.48840
767.35978	0.48821
766.33936	0.48809
765.31893	0.48804
764.29851	0.48794
763.27808	0.48775
762.25766	0.48760
761.23723	0.48753
760.21681	0.48739
759.19638	0.48726
758.17596	0.48717
757.15553	0.48699
756.13511	0.48692
755.11468	0.48704
754.09426	0.48707
753.07383	0.48704
752.05341	0.48717
751.03298	0.48737
750.01256	0.48762
748.99213	0.48793
747.97171	0.48816
746.95128	0.48844
745.93085	0.48899
744.91043	0.48965
743.89000	0.49025
742.86958	0.49087
741.84915	0.49147
740.82873	0.49193
739.80830	0.49225
738.78788	0.49232
737.76745	0.49205
736.74703	0.49147
735.72660	0.49077
734.70618	0.49015
733.68575	0.48970
732.66533	0.48941
731.64490	0.48914
730.62448	0.48881
729.60405	0.48845
728.58363	0.48810
727.56320	0.48781
726.54277	0.48764
725.52235	0.48745
724.50192	0.48729
723.48150	0.48731
722.46107	0.48748
721.44065	0.48737
720.42022	0.48637
719.39980	0.48555
718.37937	0.48602
717.35895	0.48676
716.33852	0.48695
715.31810	0.48694
714.29767	0.48697
713.27725	0.48693
712.25682	0.48686
711.23640	0.48692
710.21597	0.48701
709.19555	0.48700
708.17512	0.48709
707.15470	0.48732
706.13427	0.48757
705.11384	0.48777
704.09342	0.48781
703.07299	0.48780
702.05257	0.48803
701.03214	0.48842
700.01172	0.48872
698.99129	0.48904
697.97087	0.48936
696.95044	0.48954
695.93002	0.48981
694.90959	0.49021
693.88917	0.49037
692.86874	0.49038
691.84832	0.49077
690.82789	0.49156
689.80747	0.49230
688.78704	0.49264
687.76662	0.49280
686.74619	0.49327
685.72577	0.49408
684.70534	0.49497
683.68491	0.49609
682.66449	0.49800
681.64406	0.50074
680.62364	0.50426
679.60321	0.50894
678.58279	0.51476
677.56236	0.52086
676.54194	0.52658
675.52151	0.53303
674.50109	0.54327
673.48066	0.55900
672.46024	0.57752
671.43981	0.59507
670.41939	0.61092
669.39896	0.62593
668.37854	0.64575
667.35811	0.67961
666.33769	0.70948
665.31726	0.73611
664.29683	0.76228
663.27641	0.78707
662.25598	0.80989
661.23556	0.82815
660.21513	0.83799
659.19471	0.83562
658.17428	0.82029
657.15386	0.79467
656.13343	0.76198
655.11301	0.72604
654.09258	0.69409
653.07216	0.67585
652.05173	0.67391
651.03131	0.67515
650.01088	0.66477
648.99046	0.64460
647.97003	0.62407
646.94961	0.60723
645.92918	0.59410
644.90876	0.58399
643.88833	0.57617
642.86790	0.57002
641.84748	0.56510
640.82705	0.56102
639.80663	0.55754
638.78620	0.55484
637.76578	0.55331
636.74535	0.55336
635.72493	0.55430
634.70450	0.55414
633.68408	0.55216
632.66365	0.54915
631.64323	0.54632
630.62280	0.54447
629.60238	0.54357
628.58195	0.54374
627.56153	0.54529
626.54110	0.54786
625.52068	0.55024
624.50025	0.55116
623.47983	0.55038
622.45940	0.54814
621.43897	0.54504
620.41855	0.54202
619.39812	0.53979
618.37770	0.53766
617.35727	0.53521
616.33685	0.53344
615.31642	0.53236
614.29600	0.53149
613.27557	0.53052
612.25515	0.52919
611.23472	0.52791
610.21430	0.52708
609.19387	0.52655
608.17345	0.52594
607.15302	0.52523
606.13260	0.52479
605.11217	0.52445
604.09175	0.52386
603.07132	0.52331
602.05089	0.52321
601.03047	0.52340
600.01004	0.52306
598.98962	0.52200
597.96919	0.52109
596.94877	0.52044
595.92834	0.52005
594.90792	0.51999
593.88749	0.52022
592.86707	0.52093
591.84664	0.52072
590.82622	0.51937
589.80579	0.51893
588.78537	0.51917
587.76494	0.51906
586.74452	0.51907
585.72409	0.51937
584.70367	0.51902
583.68324	0.51813
582.66282	0.51798
581.64239	0.51843
580.62196	0.51807
579.60154	0.51708
578.58111	0.51674
577.56069	0.51731
576.54026	0.51790
575.51984	0.51719
574.49941	0.51628
573.47899	0.51627
572.45856	0.51593
571.43814	0.51486
570.41771	0.51436
569.39729	0.51465
568.37686	0.51479
567.35644	0.51428
566.33601	0.51320
565.31559	0.51267
564.29516	0.51293
563.27474	0.51296
562.25431	0.51253
561.23389	0.51183
560.21346	0.51145
559.19303	0.51144
558.17261	0.51090
557.15218	0.51002
556.13176	0.50969
555.11133	0.50964
554.09091	0.50957
553.07048	0.50976
552.05006	0.51001
551.02963	0.50990
550.00921	0.50923
548.98878	0.50898
547.96836	0.50985
546.94793	0.51055
545.92751	0.51008
544.90708	0.50917
543.88666	0.50869
542.86623	0.50850
541.84581	0.50731
540.82538	0.50473
539.80495	0.50277
538.78453	0.50301
537.76410	0.50444
536.74368	0.50448
535.72325	0.50268
534.70283	0.50136
533.68240	0.50136
532.66198	0.50151
531.64155	0.50073
530.62113	0.49890
529.60070	0.49750
528.58028	0.49762
527.55985	0.49948
526.53943	0.50117
525.51900	0.49961
524.49858	0.49657
523.47815	0.49491
522.45773	0.49567
521.43730	0.49763
520.41688	0.49767
519.39645	0.49637
518.37602	0.49719
517.35560	0.49858
516.33517	0.49751
515.31475	0.49709
514.29432	0.49646
513.27390	0.49275
512.25347	0.48987
511.23305	0.49083
510.21262	0.49371
509.19220	0.49640
508.17177	0.49829
507.15135	0.49977
506.13092	0.50215
505.11050	0.50449
504.09007	0.50097
503.06965	0.49254
502.04922	0.48562
501.02880	0.48055
500.00837	0.48239
498.98795	0.48676
