3998.02611	0.50742
3997.00569	0.50791
3995.98526	0.50839
3994.96484	0.50798
3993.94441	0.50720
3992.92399	0.50717
3991.90356	0.50774
3990.88314	0.50782
3989.86271	0.50710
3988.84229	0.50649
3987.82186	0.50649
3986.80143	0.50684
3985.78101	0.50719
3984.76058	0.50755
3983.74016	0.50793
3982.71973	0.50801
3981.69931	0.50770
3980.67888	0.50728
3979.65846	0.50705
3978.63803	0.50732
3977.61761	0.50812
3976.59718	0.50862
3975.57676	0.50825
3974.55633	0.50766
3973.53591	0.50734
3972.51548	0.50689
3971.49506	0.50664
3970.47463	0.50709
3969.45421	0.50718
3968.43378	0.50651
3967.41336	0.50620
3966.39293	0.50659
3965.37250	0.50721
3964.35208	0.50823
3963.33165	0.50962
3962.31123	0.50951
3961.29080	0.50753
3960.27038	0.50630
3959.24995	0.50669
3958.22953	0.50743
3957.20910	0.50748
3956.18868	0.50708
3955.16825	0.50730
3954.14783	0.50800
3953.12740	0.50839
3952.10698	0.50962
3951.08655	0.51165
3950.06613	0.51179
3949.04570	0.51038
3948.02528	0.50802
3947.00485	0.50492
3945.98442	0.50447
3944.96400	0.50825
3943.94357	0.51274
3942.92315	0.51119
3941.90272	0.50520
3940.88230	0.50285
3939.86187	0.50434
3938.84145	0.50589
3937.82102	0.50649
3936.80060	0.50750
3935.78017	0.50962
3934.75975	0.51303
3933.73932	0.51681
3932.71890	0.51610
3931.69847	0.51066
3930.67805	0.50674
3929.65762	0.50480
3928.63720	0.50358
3927.61677	0.50562
3926.59635	0.51146
3925.57592	0.51535
3924.55549	0.51173
3923.53507	0.50579
3922.51464	0.50538
3921.49422	0.51008
3920.47379	0.51228
3919.45337	0.51144
3918.43294	0.51377
3917.41252	0.51337
3916.39209	0.50601
3915.37167	0.50123
3914.35124	0.50226
3913.33082	0.50496
3912.31039	0.50703
3911.28997	0.50841
3910.26954	0.50938
3909.24912	0.51046
3908.22869	0.51346
3907.20827	0.51953
3906.18784	0.52680
3905.16742	0.52924
3904.14699	0.52383
3903.12656	0.51760
3902.10614	0.51144
3901.08571	0.50816
3900.06529	0.50868
3899.04486	0.50254
3898.02444	0.49534
3897.00401	0.49638
3895.98359	0.50246
3894.96316	0.50881
3893.94274	0.51535
3892.92231	0.52394
3891.90189	0.52475
3890.88146	0.51102
3889.86104	0.50129
3888.84061	0.50403
3887.82019	0.51622
3886.79976	0.52904
3885.77934	0.52363
3884.75891	0.50853
3883.73848	0.50427
3882.71806	0.51087
3881.69763	0.52191
3880.67721	0.52043
3879.65678	0.50510
3878.63636	0.49845
3877.61593	0.50248
3876.59551	0.51199
3875.57508	0.52390
3874.55466	0.52546
3873.53423	0.51506
3872.51381	0.51475
3871.49338	0.52862
3870.47296	0.53436
3869.45253	0.51355
3868.43211	0.49732
3867.41168	0.50259
3866.39126	0.51827
3865.37083	0.52390
3864.35041	0.51442
3863.32998	0.51011
3862.30955	0.50999
3861.28913	0.50558
3860.26870	0.50448
3859.24828	0.51123
3858.22785	0.51970
3857.20743	0.52489
3856.18700	0.53664
3855.16658	0.55917
3854.14615	0.56252
3853.12573	0.52884
3852.10530	0.49745
3851.08488	0.48754
3850.06445	0.49141
3849.04403	0.49826
3848.02360	0.50462
3847.00318	0.51133
3845.98275	0.51988
3844.96233	0.52840
3843.94190	0.52836
3842.92148	0.52452
3841.90105	0.52760
3840.88062	0.53045
3839.86020	0.53144
3838.83977	0.53281
3837.81935	0.52148
3836.79892	0.51056
3835.77850	0.51034
3834.75807	0.50887
3833.73765	0.51076
3832.71722	0.51874
3831.69680	0.51829
3830.67637	0.51157
3829.65595	0.51268
3828.63552	0.52080
3827.61510	0.52670
3826.59467	0.52379
3825.57425	0.51916
3824.55382	0.52176
3823.53340	0.53389
3822.51297	0.55115
3821.49255	0.54961
3820.47212	0.52198
3819.45169	0.50693
3818.43127	0.51416
3817.41084	0.53163
3816.39042	0.53385
3815.36999	0.51514
3814.34957	0.50655
3813.32914	0.51047
3812.30872	0.51662
3811.28829	0.52146
3810.26787	0.52633
3809.24744	0.53581
3808.22702	0.54826
3807.20659	0.54445
3806.18617	0.52514
3805.16574	0.51926
3804.14532	0.52981
3803.12489	0.54737
3802.10447	0.55276
3801.08404	0.53031
3800.06361	0.51244
3799.04319	0.51509
3798.02276	0.52637
3797.00234	0.53067
3795.98191	0.52384
3794.96149	0.51943
3793.94106	0.52197
3792.92064	0.52615
3791.90021	0.52934
3790.87979	0.53162
3789.85936	0.53306
3788.83894	0.53402
3787.81851	0.53561
3786.79809	0.53864
3785.77766	0.54071
3784.75724	0.53775
3783.73681	0.53303
3782.71639	0.53288
3781.69596	0.53882
3780.67554	0.54651
3779.65511	0.54435
3778.63468	0.53402
3777.61426	0.52933
3776.59383	0.53093
3775.57341	0.53411
3774.55298	0.53692
3773.53256	0.53960
3772.51213	0.54470
3771.49171	0.55357
3770.47128	0.55564
3769.45086	0.54302
3768.43043	0.53493
3767.41001	0.54020
3766.38958	0.54557
3765.36916	0.54070
3764.34873	0.53545
3763.32831	0.53674
3762.30788	0.54299
3761.28746	0.55319
3760.26703	0.55802
3759.24661	0.54991
3758.22618	0.54411
3757.20575	0.54427
3756.18533	0.54259
3755.16490	0.54531
3754.14448	0.55985
3753.12405	0.57633
3752.10363	0.57284
3751.08320	0.56203
3750.06278	0.55518
3749.04235	0.53905
3748.02193	0.53098
3747.00150	0.54356
3745.98108	0.57064
3744.96065	0.57809
3743.94023	0.54321
3742.91980	0.52820
3741.89938	0.53457
3740.87895	0.54187
3739.85853	0.54880
3738.83810	0.55913
3737.81767	0.57065
3736.79725	0.57925
3735.77682	0.57400
3734.75640	0.55517
3733.73597	0.54755
3732.71555	0.54815
3731.69512	0.54174
3730.67470	0.53780
3729.65427	0.54336
3728.63385	0.55400
3727.61342	0.56331
3726.59300	0.56382
3725.57257	0.55750
3724.55215	0.55547
3723.53172	0.55943
3722.51130	0.55796
3721.49087	0.55146
3720.47045	0.55191
3719.45002	0.55493
3718.42960	0.55375
3717.40917	0.55376
3716.38874	0.55787
3715.36832	0.56325
3714.34789	0.57207
3713.32747	0.58427
3712.30704	0.58277
3711.28662	0.56784
3710.26619	0.55899
3709.24577	0.55147
3708.22534	0.54669
3707.20492	0.54982
3706.18449	0.55546
3705.16407	0.55976
3704.14364	0.56593
3703.12322	0.57433
3702.10279	0.57374
3701.08237	0.56274
3700.06194	0.55693
3699.04152	0.55875
3698.02109	0.56252
3697.00067	0.56508
3695.98024	0.56600
3694.95981	0.56693
3693.93939	0.57046
3692.91896	0.57901
3691.89854	0.58607
3690.87811	0.58368
3689.85769	0.58187
3688.83726	0.57493
3687.81684	0.55584
3686.79641	0.54780
3685.77599	0.55273
3684.75556	0.55928
3683.73514	0.56328
3682.71471	0.56675
3681.69429	0.57222
3680.67386	0.57814
3679.65344	0.57873
3678.63301	0.57861
3677.61259	0.59021
3676.59216	0.60776
3675.57173	0.59471
3674.55131	0.55757
3673.53088	0.54833
3672.51046	0.56368
3671.49003	0.58270
3670.46961	0.58338
3669.44918	0.56806
3668.42876	0.55540
3667.40833	0.55326
3666.38791	0.55868
3665.36748	0.56501
3664.34706	0.56953
3663.32663	0.57243
3662.30621	0.57448
3661.28578	0.57607
3660.26536	0.57673
3659.24493	0.57832
3658.22451	0.58549
3657.20408	0.59242
3656.18366	0.58326
3655.16323	0.56927
3654.14280	0.56884
3653.12238	0.58083
3652.10195	0.59875
3651.08153	0.60971
3650.06110	0.60159
3649.04068	0.58615
3648.02025	0.57371
3646.99983	0.55981
3645.97940	0.55269
3644.95898	0.55749
3643.93855	0.56718
3642.91813	0.57405
3641.89770	0.57599
3640.87728	0.57673
3639.85685	0.57910
3638.83643	0.58112
3637.81600	0.58049
3636.79558	0.58013
3635.77515	0.58397
3634.75473	0.58810
3633.73430	0.58525
3632.71387	0.58189
3631.69345	0.58980
3630.67302	0.60824
3629.65260	0.61598
3628.63217	0.58955
3627.61175	0.56492
3626.59132	0.56156
3625.57090	0.56653
3624.55047	0.57270
3623.53005	0.57915
3622.50962	0.58641
3621.48920	0.59536
3620.46877	0.60124
3619.44835	0.59702
3618.42792	0.58578
3617.40750	0.57724
3616.38707	0.57812
3615.36665	0.58475
3614.34622	0.59004
3613.32579	0.58971
3612.30537	0.58270
3611.28494	0.58163
3610.26452	0.58917
3609.24409	0.59160
3608.22367	0.58702
3607.20324	0.58115
3606.18282	0.57650
3605.16239	0.57741
3604.14197	0.58256
3603.12154	0.58803
3602.10112	0.59197
3601.08069	0.59227
3600.06027	0.58989
3599.03984	0.58810
3598.01942	0.58830
3596.99899	0.59147
3595.97857	0.59359
3594.95814	0.59136
3593.93772	0.58815
3592.91729	0.58507
3591.89686	0.58452
3590.87644	0.59054
3589.85601	0.60096
3588.83559	0.60718
3587.81516	0.60282
3586.79474	0.58961
3585.77431	0.57886
3584.75389	0.57848
3583.73346	0.58283
3582.71304	0.58635
3581.69261	0.58959
3580.67219	0.59200
3579.65176	0.59220
3578.63134	0.59210
3577.61091	0.59254
3576.59049	0.59259
3575.57006	0.59266
3574.54964	0.59227
3573.52921	0.59155
3572.50879	0.59220
3571.48836	0.59440
3570.46793	0.59902
3569.44751	0.60717
3568.42708	0.61274
3567.40666	0.60723
3566.38623	0.59277
3565.36581	0.58186
3564.34538	0.58089
3563.32496	0.58425
3562.30453	0.58778
3561.28411	0.59111
3560.26368	0.59217
3559.24326	0.59153
3558.22283	0.59194
3557.20241	0.59286
3556.18198	0.59368
3555.16156	0.59562
3554.14113	0.59842
3553.12071	0.59945
3552.10028	0.59623
3551.07985	0.59235
3550.05943	0.59261
3549.03900	0.59663
3548.01858	0.60054
3546.99815	0.60087
3545.97773	0.59815
3544.95730	0.59430
3543.93688	0.59117
3542.91645	0.59024
3541.89603	0.59132
3540.87560	0.59327
3539.85518	0.59492
3538.83475	0.59655
3537.81433	0.59867
3536.79390	0.59889
3535.77348	0.59629
3534.75305	0.59454
3533.73263	0.59522
3532.71220	0.59697
3531.69178	0.59861
3530.67135	0.59985
3529.65092	0.60060
3528.63050	0.60016
3527.61007	0.59839
3526.58965	0.59669
3525.56922	0.59687
3524.54880	0.59841
3523.52837	0.59799
3522.50795	0.59507
3521.48752	0.59366
3520.46710	0.59518
3519.44667	0.59706
3518.42625	0.59759
3517.40582	0.59739
3516.38540	0.59750
3515.36497	0.59816
3514.34455	0.59904
3513.32412	0.59977
3512.30370	0.60046
3511.28327	0.60172
3510.26285	0.60216
3509.24242	0.59961
3508.22199	0.59674
3507.20157	0.59693
3506.18114	0.59940
3505.16072	0.60231
3504.14029	0.60367
3503.11987	0.60173
3502.09944	0.59823
3501.07902	0.59638
3500.05859	0.59662
3499.03817	0.59803
3498.01774	0.59989
3496.99732	0.60099
3495.97689	0.60060
3494.95647	0.59970
3493.93604	0.59940
3492.91562	0.59979
3491.89519	0.60039
3490.87477	0.60101
3489.85434	0.60197
3488.83391	0.60250
3487.81349	0.60159
3486.79306	0.60052
3485.77264	0.60042
3484.75221	0.60122
3483.73179	0.60280
3482.71136	0.60356
3481.69094	0.60231
3480.67051	0.60054
3479.65009	0.59972
3478.62966	0.60002
3477.60924	0.60099
3476.58881	0.60211
3475.56839	0.60263
3474.54796	0.60214
3473.52754	0.60158
3472.50711	0.60164
3471.48669	0.60190
3470.46626	0.60204
3469.44584	0.60240
3468.42541	0.60319
3467.40498	0.60356
3466.38456	0.60310
3465.36413	0.60285
3464.34371	0.60340
3463.32328	0.60385
3462.30286	0.60349
3461.28243	0.60282
3460.26201	0.60254
3459.24158	0.60272
3458.22116	0.60305
3457.20073	0.60333
3456.18031	0.60345
3455.15988	0.60349
3454.13946	0.60364
3453.11903	0.60384
3452.09861	0.60403
3451.07818	0.60419
3450.05776	0.60474
3449.03733	0.60649
3448.01691	0.60777
3446.99648	0.60576
3445.97605	0.60286
3444.95563	0.60255
3443.93520	0.60398
3442.91478	0.60471
3441.89435	0.60417
3440.87393	0.60384
3439.85350	0.60423
3438.83308	0.60466
3437.81265	0.60491
3436.79223	0.60510
3435.77180	0.60534
3434.75138	0.60566
3433.73095	0.60596
3432.71053	0.60609
3431.69010	0.60597
3430.66968	0.60573
3429.64925	0.60579
3428.62883	0.60608
3427.60840	0.60616
3426.58797	0.60618
3425.56755	0.60647
3424.54712	0.60705
3423.52670	0.60768
3422.50627	0.60821
3421.48585	0.60823
3420.46542	0.60725
3419.44500	0.60598
3418.42457	0.60562
3417.40415	0.60610
3416.38372	0.60676
3415.36330	0.60736
3414.34287	0.60776
3413.32245	0.60792
3412.30202	0.60796
3411.28160	0.60804
3410.26117	0.60818
3409.24075	0.60832
3408.22032	0.60847
3407.19990	0.60863
3406.17947	0.60874
3405.15904	0.60883
3404.13862	0.60887
3403.11819	0.60883
3402.09777	0.60881
3401.07734	0.60885
3400.05692	0.60914
3399.03649	0.60984
3398.01607	0.61033
3396.99564	0.60984
3395.97522	0.60923
3394.95479	0.60972
3393.93437	0.61071
3392.91394	0.61061
3391.89352	0.60961
3390.87309	0.60922
3389.85267	0.60965
3388.83224	0.61023
3387.81182	0.61075
3386.79139	0.61121
3385.77097	0.61140
3384.75054	0.61125
3383.73011	0.61094
3382.70969	0.61078
3381.68926	0.61097
3380.66884	0.61136
3379.64841	0.61167
3378.62799	0.61178
3377.60756	0.61185
3376.58714	0.61205
3375.56671	0.61227
3374.54629	0.61242
3373.52586	0.61257
3372.50544	0.61282
3371.48501	0.61307
3370.46459	0.61330
3369.44416	0.61359
3368.42374	0.61385
3367.40331	0.61397
3366.38289	0.61402
3365.36246	0.61398
3364.34203	0.61391
3363.32161	0.61412
3362.30118	0.61443
3361.28076	0.61450
3360.26033	0.61451
3359.23991	0.61469
3358.21948	0.61501
3357.19906	0.61531
3356.17863	0.61536
3355.15821	0.61521
3354.13778	0.61520
3353.11736	0.61542
3352.09693	0.61572
3351.07651	0.61601
3350.05608	0.61629
3349.03566	0.61651
3348.01523	0.61663
3346.99481	0.61671
3345.97438	0.61680
3344.95396	0.61697
3343.93353	0.61723
3342.91310	0.61745
3341.89268	0.61753
3340.87225	0.61750
3339.85183	0.61755
3338.83140	0.61796
3337.81098	0.61847
3336.79055	0.61852
3335.77013	0.61830
3334.74970	0.61820
3333.72928	0.61821
3332.70885	0.61838
3331.68843	0.61869
3330.66800	0.61906
3329.64758	0.61948
3328.62715	0.61989
3327.60673	0.62011
3326.58630	0.62009
3325.56588	0.62002
3324.54545	0.62004
3323.52503	0.62015
3322.50460	0.62036
3321.48417	0.62061
3320.46375	0.62090
3319.44332	0.62124
3318.42290	0.62147
3317.40247	0.62158
3316.38205	0.62179
3315.36162	0.62226
3314.34120	0.62273
3313.32077	0.62275
3312.30035	0.62255
3311.27992	0.62268
3310.25950	0.62309
3309.23907	0.62327
3308.21865	0.62307
3307.19822	0.62304
3306.17780	0.62345
3305.15737	0.62395
3304.13695	0.62427
3303.11652	0.62439
3302.09609	0.62449
3301.07567	0.62475
3300.05524	0.62512
3299.03482	0.62550
3298.01439	0.62573
3296.99397	0.62575
3295.97354	0.62584
3294.95312	0.62622
3293.93269	0.62678
3292.91227	0.62715
3291.89184	0.62723
3290.87142	0.62730
3289.85099	0.62767
3288.83057	0.62817
3287.81014	0.62864
3286.78972	0.62921
3285.76929	0.63006
3284.74887	0.63097
3283.72844	0.63138
3282.70802	0.63131
3281.68759	0.63132
3280.66716	0.63141
3279.64674	0.63147
3278.62631	0.63185
3277.60589	0.63249
3276.58546	0.63277
3275.56504	0.63289
3274.54461	0.63351
3273.52419	0.63444
3272.50376	0.63518
3271.48334	0.63516
3270.46291	0.63434
3269.44249	0.63354
3268.42206	0.63323
3267.40164	0.63316
3266.38121	0.63309
3265.36079	0.63309
3264.34036	0.63327
3263.31994	0.63357
3262.29951	0.63383
3261.27909	0.63397
3260.25866	0.63415
3259.23823	0.63466
3258.21781	0.63523
3257.19738	0.63527
3256.17696	0.63501
3255.15653	0.63493
3254.13611	0.63466
3253.11568	0.63426
3252.09526	0.63433
3251.07483	0.63469
3250.05441	0.63493
3249.03398	0.63502
3248.01356	0.63512
3246.99313	0.63545
3245.97271	0.63570
3244.95228	0.63526
3243.93186	0.63457
3242.91143	0.63442
3241.89101	0.63475
3240.87058	0.63509
3239.85015	0.63515
3238.82973	0.63514
3237.80930	0.63522
3236.78888	0.63509
3235.76845	0.63481
3234.74803	0.63470
3233.72760	0.63460
3232.70718	0.63441
3231.68675	0.63431
3230.66633	0.63427
3229.64590	0.63427
3228.62548	0.63438
3227.60505	0.63431
3226.58463	0.63403
3225.56420	0.63389
3224.54378	0.63389
3223.52335	0.63394
3222.50293	0.63403
3221.48250	0.63424
3220.46208	0.63454
3219.44165	0.63445
3218.42122	0.63401
3217.40080	0.63387
3216.38037	0.63426
3215.35995	0.63479
3214.33952	0.63482
3213.31910	0.63440
3212.29867	0.63437
3211.27825	0.63489
3210.25782	0.63513
3209.23740	0.63476
3208.21697	0.63452
3207.19655	0.63471
3206.17612	0.63499
3205.15570	0.63522
3204.13527	0.63545
3203.11485	0.63571
3202.09442	0.63607
3201.07400	0.63641
3200.05357	0.63674
3199.03315	0.63698
3198.01272	0.63676
3196.99229	0.63614
3195.97187	0.63572
3194.95144	0.63568
3193.93102	0.63588
3192.91059	0.63622
3191.89017	0.63654
3190.86974	0.63656
3189.84932	0.63640
3188.82889	0.63637
3187.80847	0.63638
3186.78804	0.63622
3185.76762	0.63593
3184.74719	0.63562
3183.72677	0.63555
3182.70634	0.63572
3181.68592	0.63579
3180.66549	0.63586
3179.64507	0.63607
3178.62464	0.63584
3177.60421	0.63500
3176.58379	0.63449
3175.56336	0.63458
3174.54294	0.63479
3173.52251	0.63488
3172.50209	0.63484
3171.48166	0.63473
3170.46124	0.63452
3169.44081	0.63425
3168.42039	0.63406
3167.39996	0.63399
3166.37954	0.63404
3165.35911	0.63420
3164.33869	0.63422
3163.31826	0.63397
3162.29784	0.63360
3161.27741	0.63330
3160.25699	0.63314
3159.23656	0.63312
3158.21614	0.63320
3157.19571	0.63330
3156.17528	0.63334
3155.15486	0.63331
3154.13443	0.63329
3153.11401	0.63328
3152.09358	0.63319
3151.07316	0.63297
3150.05273	0.63270
3149.03231	0.63249
3148.01188	0.63242
3146.99146	0.63237
3145.97103	0.63228
3144.95061	0.63225
3143.93018	0.63219
3142.90976	0.63197
3141.88933	0.63161
3140.86891	0.63125
3139.84848	0.63102
3138.82806	0.63098
3137.80763	0.63097
3136.78721	0.63084
3135.76678	0.63066
3134.74635	0.63064
3133.72593	0.63050
3132.70550	0.62986
3131.68508	0.62925
3130.66465	0.62913
3129.64423	0.62932
3128.62380	0.62961
3127.60338	0.62977
3126.58295	0.62950
3125.56253	0.62909
3124.54210	0.62919
3123.52168	0.62951
3122.50125	0.62922
3121.48083	0.62870
3120.46040	0.62875
3119.43998	0.62892
3118.41955	0.62873
3117.39913	0.62867
3116.37870	0.62880
3115.35828	0.62865
3114.33785	0.62849
3113.31742	0.62859
3112.29700	0.62875
3111.27657	0.62899
3110.25615	0.62949
3109.23572	0.63047
3108.21530	0.63168
3107.19487	0.63204
3106.17445	0.63107
3105.15402	0.62972
3104.13360	0.62881
3103.11317	0.62827
3102.09275	0.62778
3101.07232	0.62710
3100.05190	0.62637
3099.03147	0.62603
3098.01105	0.62622
3096.99062	0.62646
3095.97020	0.62612
3094.94977	0.62549
3093.92934	0.62513
3092.90892	0.62498
3091.88849	0.62491
3090.86807	0.62494
3089.84764	0.62499
3088.82722	0.62505
3087.80679	0.62501
3086.78637	0.62474
3085.76594	0.62440
3084.74552	0.62429
3083.72509	0.62442
3082.70467	0.62440
3081.68424	0.62413
3080.66382	0.62386
3079.64339	0.62361
3078.62297	0.62332
3077.60254	0.62305
3076.58212	0.62286
3075.56169	0.62278
3074.54127	0.62274
3073.52084	0.62269
3072.50041	0.62267
3071.47999	0.62264
3070.45956	0.62259
3069.43914	0.62266
3068.41871	0.62285
3067.39829	0.62271
3066.37786	0.62227
3065.35744	0.62196
3064.33701	0.62151
3063.31659	0.62105
3062.29616	0.62116
3061.27574	0.62150
3060.25531	0.62150
3059.23489	0.62130
3058.21446	0.62139
3057.19404	0.62154
3056.17361	0.62105
3055.15319	0.62033
3054.13276	0.62012
3053.11234	0.62024
3052.09191	0.62031
3051.07148	0.62040
3050.05106	0.62052
3049.03063	0.62032
3048.01021	0.61978
3046.98978	0.61944
3045.96936	0.61945
3044.94893	0.61949
3043.92851	0.61939
3042.90808	0.61924
3041.88766	0.61912
3040.86723	0.61901
3039.84681	0.61889
3038.82638	0.61880
3037.80596	0.61874
3036.78553	0.61873
3035.76511	0.61870
3034.74468	0.61848
3033.72426	0.61829
3032.70383	0.61838
3031.68340	0.61818
3030.66298	0.61746
3029.64255	0.61699
3028.62213	0.61701
3027.60170	0.61721
3026.58128	0.61728
3025.56085	0.61709
3024.54043	0.61689
3023.52000	0.61680
3022.49958	0.61664
3021.47915	0.61648
3020.45873	0.61642
3019.43830	0.61643
3018.41788	0.61641
3017.39745	0.61639
3016.37703	0.61632
3015.35660	0.61613
3014.33618	0.61603
3013.31575	0.61590
3012.29533	0.61544
3011.27490	0.61502
3010.25447	0.61484
3009.23405	0.61472
3008.21362	0.61466
3007.19320	0.61462
3006.17277	0.61462
3005.15235	0.61450
3004.13192	0.61416
3003.11150	0.61382
3002.09107	0.61366
3001.07065	0.61357
3000.05022	0.61350
2999.02980	0.61343
2998.00937	0.61333
2996.98895	0.61328
2995.96852	0.61327
2994.94810	0.61311
2993.92767	0.61277
2992.90725	0.61248
2991.88682	0.61232
2990.86640	0.61225
2989.84597	0.61226
2988.82554	0.61225
2987.80512	0.61208
2986.78469	0.61186
2985.76427	0.61175
2984.74384	0.61175
2983.72342	0.61175
2982.70299	0.61173
2981.68257	0.61169
2980.66214	0.61158
2979.64172	0.61147
2978.62129	0.61139
2977.60087	0.61125
2976.58044	0.61112
2975.56002	0.61109
2974.53959	0.61111
2973.51917	0.61110
2972.49874	0.61101
2971.47832	0.61090
2970.45789	0.61084
2969.43746	0.61072
2968.41704	0.61055
2967.39661	0.61043
2966.37619	0.61034
2965.35576	0.61017
2964.33534	0.60999
2963.31491	0.60985
2962.29449	0.60974
2961.27406	0.60956
2960.25364	0.60934
2959.23321	0.60914
2958.21279	0.60893
2957.19236	0.60874
2956.17194	0.60859
2955.15151	0.60845
2954.13109	0.60832
2953.11066	0.60818
2952.09024	0.60804
2951.06981	0.60791
2950.04939	0.60786
2949.02896	0.60783
2948.00853	0.60773
2946.98811	0.60763
2945.96768	0.60754
2944.94726	0.60744
2943.92683	0.60737
2942.90641	0.60731
2941.88598	0.60727
2940.86556	0.60718
2939.84513	0.60701
2938.82471	0.60680
2937.80428	0.60660
2936.78386	0.60644
2935.76343	0.60635
2934.74301	0.60631
2933.72258	0.60622
2932.70216	0.60605
2931.68173	0.60587
2930.66131	0.60578
2929.64088	0.60571
2928.62046	0.60557
2927.60003	0.60537
2926.57960	0.60519
2925.55918	0.60501
2924.53875	0.60482
2923.51833	0.60462
2922.49790	0.60438
2921.47748	0.60417
2920.45705	0.60405
2919.43663	0.60394
2918.41620	0.60380
2917.39578	0.60365
2916.37535	0.60351
2915.35493	0.60333
2914.33450	0.60314
2913.31408	0.60294
2912.29365	0.60277
2911.27323	0.60267
2910.25280	0.60263
2909.23238	0.60257
2908.21195	0.60247
2907.19152	0.60234
2906.17110	0.60223
2905.15067	0.60213
2904.13025	0.60202
2903.10982	0.60191
2902.08940	0.60178
2901.06897	0.60162
2900.04855	0.60147
2899.02812	0.60136
2898.00770	0.60130
2896.98727	0.60121
2895.96685	0.60108
2894.94642	0.60092
2893.92600	0.60072
2892.90557	0.60054
2891.88515	0.60046
2890.86472	0.60041
2889.84430	0.60032
2888.82387	0.60016
2887.80345	0.60002
2886.78302	0.59995
2885.76259	0.59991
2884.74217	0.59980
2883.72174	0.59961
2882.70132	0.59942
2881.68089	0.59927
2880.66047	0.59918
2879.64004	0.59911
2878.61962	0.59901
2877.59919	0.59893
2876.57877	0.59892
2875.55834	0.59890
2874.53792	0.59878
2873.51749	0.59860
2872.49707	0.59849
2871.47664	0.59842
2870.45622	0.59833
2869.43579	0.59823
2868.41537	0.59815
2867.39494	0.59806
2866.37452	0.59795
2865.35409	0.59784
2864.33366	0.59772
2863.31324	0.59760
2862.29281	0.59752
2861.27239	0.59746
2860.25196	0.59736
2859.23154	0.59726
2858.21111	0.59720
2857.19069	0.59718
2856.17026	0.59710
2855.14984	0.59693
2854.12941	0.59680
2853.10899	0.59674
2852.08856	0.59666
2851.06814	0.59652
2850.04771	0.59632
2849.02729	0.59612
2848.00686	0.59602
2846.98644	0.59595
2845.96601	0.59580
2844.94558	0.59568
2843.92516	0.59570
2842.90473	0.59573
2841.88431	0.59565
2840.86388	0.59556
2839.84346	0.59555
2838.82303	0.59553
2837.80261	0.59544
2836.78218	0.59528
2835.76176	0.59510
2834.74133	0.59492
2833.72091	0.59474
2832.70048	0.59461
2831.68006	0.59449
2830.65963	0.59431
2829.63921	0.59416
2828.61878	0.59408
2827.59836	0.59398
2826.57793	0.59387
2825.55751	0.59381
2824.53708	0.59370
2823.51665	0.59351
2822.49623	0.59335
2821.47580	0.59323
2820.45538	0.59315
2819.43495	0.59314
2818.41453	0.59315
2817.39410	0.59309
2816.37368	0.59298
2815.35325	0.59288
2814.33283	0.59275
2813.31240	0.59264
2812.29198	0.59264
2811.27155	0.59269
2810.25113	0.59266
2809.23070	0.59254
2808.21028	0.59238
2807.18985	0.59227
2806.16943	0.59222
2805.14900	0.59218
2804.12858	0.59211
2803.10815	0.59203
2802.08772	0.59198
2801.06730	0.59194
2800.04687	0.59188
2799.02645	0.59181
2798.00602	0.59176
2796.98560	0.59171
2795.96517	0.59167
2794.94475	0.59163
2793.92432	0.59155
2792.90390	0.59147
2791.88347	0.59147
2790.86305	0.59150
2789.84262	0.59141
2788.82220	0.59129
2787.80177	0.59125
2786.78135	0.59122
2785.76092	0.59115
2784.74050	0.59107
2783.72007	0.59097
2782.69964	0.59084
2781.67922	0.59073
2780.65879	0.59062
2779.63837	0.59055
2778.61794	0.59053
2777.59752	0.59055
2776.57709	0.59056
2775.55667	0.59053
2774.53624	0.59049
2773.51582	0.59048
2772.49539	0.59044
2771.47497	0.59033
2770.45454	0.59023
2769.43412	0.59017
2768.41369	0.59014
2767.39327	0.59011
2766.37284	0.59007
2765.35242	0.59001
2764.33199	0.58993
2763.31157	0.58990
2762.29114	0.58991
2761.27071	0.58991
2760.25029	0.58984
2759.22986	0.58976
2758.20944	0.58971
2757.18901	0.58966
2756.16859	0.58962
2755.14816	0.58957
2754.12774	0.58951
2753.10731	0.58949
2752.08689	0.58945
2751.06646	0.58942
2750.04604	0.58943
2749.02561	0.58943
2748.00519	0.58939
2746.98476	0.58935
2745.96434	0.58930
2744.94391	0.58925
2743.92349	0.58922
2742.90306	0.58923
2741.88264	0.58922
2740.86221	0.58921
2739.84178	0.58920
2738.82136	0.58916
2737.80093	0.58912
2736.78051	0.58912
2735.76008	0.58913
2734.73966	0.58911
2733.71923	0.58910
2732.69881	0.58911
2731.67838	0.58914
2730.65796	0.58917
2729.63753	0.58913
2728.61711	0.58908
2727.59668	0.58908
2726.57626	0.58909
2725.55583	0.58905
2724.53541	0.58900
2723.51498	0.58898
2722.49456	0.58896
2721.47413	0.58894
2720.45370	0.58893
2719.43328	0.58888
2718.41285	0.58881
2717.39243	0.58881
2716.37200	0.58888
2715.35158	0.58892
2714.33115	0.58891
2713.31073	0.58891
2712.29030	0.58894
2711.26988	0.58894
2710.24945	0.58893
2709.22903	0.58892
2708.20860	0.58893
2707.18818	0.58895
2706.16775	0.58900
2705.14733	0.58905
2704.12690	0.58910
2703.10648	0.58913
2702.08605	0.58913
2701.06563	0.58907
2700.04520	0.58900
2699.02477	0.58902
2698.00435	0.58909
2696.98392	0.58913
2695.96350	0.58916
2694.94307	0.58918
2693.92265	0.58919
2692.90222	0.58925
2691.88180	0.58930
2690.86137	0.58930
2689.84095	0.58930
2688.82052	0.58934
2687.80010	0.58935
2686.77967	0.58937
2685.75925	0.58943
2684.73882	0.58948
2683.71840	0.58950
2682.69797	0.58955
2681.67755	0.58967
2680.65712	0.58978
2679.63670	0.58982
2678.61627	0.58984
2677.59584	0.58989
2676.57542	0.58993
2675.55499	0.58994
2674.53457	0.58999
2673.51414	0.59006
2672.49372	0.59012
2671.47329	0.59020
2670.45287	0.59032
2669.43244	0.59045
2668.41202	0.59061
2667.39159	0.59081
2666.37117	0.59104
2665.35074	0.59131
2664.33032	0.59167
2663.30989	0.59219
2662.28947	0.59289
2661.26904	0.59377
2660.24862	0.59483
2659.22819	0.59604
2658.20776	0.59734
2657.18734	0.59871
2656.16691	0.60015
2655.14649	0.60170
2654.12606	0.60335
2653.10564	0.60503
2652.08521	0.60673
2651.06479	0.60848
2650.04436	0.61026
2649.02394	0.61207
2648.00351	0.61391
2646.98309	0.61574
2645.96266	0.61758
2644.94224	0.61944
2643.92181	0.62127
2642.90139	0.62307
2641.88096	0.62490
2640.86054	0.62677
2639.84011	0.62862
2638.81969	0.63043
2637.79926	0.63221
2636.77883	0.63396
2635.75841	0.63570
2634.73798	0.63745
2633.71756	0.63916
2632.69713	0.64088
2631.67671	0.64262
2630.65628	0.64434
2629.63586	0.64602
2628.61543	0.64767
2627.59501	0.64931
2626.57458	0.65091
2625.55416	0.65243
2624.53373	0.65393
2623.51331	0.65551
2622.49288	0.65708
2621.47246	0.65853
2620.45203	0.65992
2619.43161	0.66131
2618.41118	0.66270
2617.39076	0.66409
2616.37033	0.66550
2615.34990	0.66687
2614.32948	0.66818
2613.30905	0.66947
2612.28863	0.67076
2611.26820	0.67203
2610.24778	0.67329
2609.22735	0.67449
2608.20693	0.67562
2607.18650	0.67673
2606.16608	0.67786
2605.14565	0.67897
2604.12523	0.68007
2603.10480	0.68118
2602.08438	0.68225
2601.06395	0.68328
2600.04353	0.68432
2599.02310	0.68534
2598.00268	0.68634
2596.98225	0.68728
2595.96182	0.68818
2594.94140	0.68905
2593.92097	0.68990
2592.90055	0.69079
2591.88012	0.69171
2590.85970	0.69256
2589.83927	0.69338
2588.81885	0.69420
2587.79842	0.69500
2586.77800	0.69575
2585.75757	0.69644
2584.73715	0.69712
2583.71672	0.69784
2582.69630	0.69857
2581.67587	0.69929
2580.65545	0.70001
2579.63502	0.70064
2578.61460	0.70124
2577.59417	0.70192
2576.57375	0.70262
2575.55332	0.70323
2574.53289	0.70379
2573.51247	0.70433
2572.49204	0.70485
2571.47162	0.70539
2570.45119	0.70596
2569.43077	0.70651
2568.41034	0.70698
2567.38992	0.70742
2566.36949	0.70790
2565.34907	0.70836
2564.32864	0.70882
2563.30822	0.70932
2562.28779	0.70982
2561.26737	0.71024
2560.24694	0.71062
2559.22652	0.71100
2558.20609	0.71141
2557.18567	0.71183
2556.16524	0.71222
2555.14482	0.71256
2554.12439	0.71288
2553.10396	0.71322
2552.08354	0.71357
2551.06311	0.71387
2550.04269	0.71412
2549.02226	0.71438
2548.00184	0.71468
2546.98141	0.71498
2545.96099	0.71524
2544.94056	0.71545
2543.92014	0.71567
2542.89971	0.71588
2541.87929	0.71612
2540.85886	0.71639
2539.83844	0.71664
2538.81801	0.71685
2537.79759	0.71705
2536.77716	0.71724
2535.75674	0.71737
2534.73631	0.71753
2533.71588	0.71777
2532.69546	0.71801
2531.67503	0.71820
2530.65461	0.71835
2529.63418	0.71848
2528.61376	0.71862
2527.59333	0.71875
2526.57291	0.71885
2525.55248	0.71896
2524.53206	0.71905
2523.51163	0.71913
2522.49121	0.71919
2521.47078	0.71922
2520.45036	0.71926
2519.42993	0.71936
2518.40951	0.71947
2517.38908	0.71954
2516.36866	0.71962
2515.34823	0.71971
2514.32781	0.71975
2513.30738	0.71976
2512.28695	0.71978
2511.26653	0.71982
2510.24610	0.71986
2509.22568	0.71989
2508.20525	0.71990
2507.18483	0.71992
2506.16440	0.71995
2505.14398	0.71996
2504.12355	0.71997
2503.10313	0.72002
2502.08270	0.72006
2501.06228	0.72010
2500.04185	0.72013
2499.02143	0.72014
2498.00100	0.72016
2496.98058	0.72015
2495.96015	0.72012
2494.93973	0.72011
2493.91930	0.72013
2492.89888	0.72014
2491.87845	0.72018
2490.85802	0.72028
2489.83760	0.72032
2488.81717	0.72029
2487.79675	0.72033
2486.77632	0.72040
2485.75590	0.72039
2484.73547	0.72032
2483.71505	0.72026
2482.69462	0.72021
2481.67420	0.72021
2480.65377	0.72022
2479.63335	0.72018
2478.61292	0.72014
2477.59250	0.72011
2476.57207	0.72003
2475.55165	0.71993
2474.53122	0.71988
2473.51080	0.71988
2472.49037	0.71987
2471.46994	0.71985
2470.44952	0.71980
2469.42909	0.71973
2468.40867	0.71972
2467.38824	0.71978
2466.36782	0.71982
2465.34739	0.71985
2464.32697	0.71989
2463.30654	0.71997
2462.28612	0.72007
2461.26569	0.72020
2460.24527	0.72033
2459.22484	0.72049
2458.20442	0.72072
2457.18399	0.72100
2456.16357	0.72129
2455.14314	0.72160
2454.12272	0.72195
2453.10229	0.72231
2452.08187	0.72270
2451.06144	0.72310
2450.04101	0.72346
2449.02059	0.72377
2448.00016	0.72406
2446.97974	0.72433
2445.95931	0.72461
2444.93889	0.72487
2443.91846	0.72511
2442.89804	0.72535
2441.87761	0.72555
2440.85719	0.72567
2439.83676	0.72581
2438.81634	0.72598
2437.79591	0.72608
2436.77549	0.72614
2435.75506	0.72624
2434.73464	0.72631
2433.71421	0.72629
2432.69379	0.72621
2431.67336	0.72614
2430.65294	0.72611
2429.63251	0.72610
2428.61208	0.72605
2427.59166	0.72597
2426.57123	0.72587
2425.55081	0.72575
2424.53038	0.72560
2423.50996	0.72544
2422.48953	0.72531
2421.46911	0.72518
2420.44868	0.72498
2419.42826	0.72476
2418.40783	0.72460
2417.38741	0.72446
2416.36698	0.72428
2415.34656	0.72412
2414.32613	0.72400
2413.30571	0.72395
2412.28528	0.72390
2411.26486	0.72387
2410.24443	0.72392
2409.22401	0.72406
2408.20358	0.72423
2407.18315	0.72441
2406.16273	0.72458
2405.14230	0.72473
2404.12188	0.72491
2403.10145	0.72515
2402.08103	0.72552
2401.06060	0.72607
2400.04018	0.72681
2399.01975	0.72777
2397.99933	0.72894
2396.97890	0.73029
2395.95848	0.73183
2394.93805	0.73365
2393.91763	0.73573
2392.89720	0.73796
2391.87678	0.74030
2390.85635	0.74285
2389.83593	0.74565
2388.81550	0.74868
2387.79507	0.75189
2386.77465	0.75525
2385.75422	0.75875
2384.73380	0.76241
2383.71337	0.76619
2382.69295	0.77009
2381.67252	0.77406
2380.65210	0.77806
2379.63167	0.78206
2378.61125	0.78597
2377.59082	0.78973
2376.57040	0.79334
2375.54997	0.79668
2374.52955	0.79965
2373.50912	0.80229
2372.48870	0.80441
2371.46827	0.80571
2370.44785	0.80593
2369.42742	0.80481
2368.40700	0.80215
2367.38657	0.79775
2366.36614	0.79192
2365.34572	0.78514
2364.32529	0.77763
2363.30487	0.76973
2362.28444	0.76214
2361.26402	0.75545
2360.24359	0.74978
2359.22317	0.74461
2358.20274	0.73957
2357.18232	0.73506
2356.16189	0.73112
2355.14147	0.72688
2354.12104	0.72231
2353.10062	0.71829
2352.08019	0.71425
2351.05977	0.70950
2350.03934	0.70684
2349.01892	0.70975
2347.99849	0.71609
2346.97807	0.71938
2345.95764	0.71613
2344.93721	0.70843
2343.91679	0.70002
2342.89636	0.69339
2341.87594	0.68866
2340.85551	0.68451
2339.83509	0.68009
2338.81466	0.67612
2337.79424	0.67350
2336.77381	0.67076
2335.75339	0.66734
2334.73296	0.66529
2333.71254	0.66443
2332.69211	0.66320
2331.67169	0.66130
2330.65126	0.65899
2329.63084	0.65667
2328.61041	0.65502
2327.58999	0.65449
2326.56956	0.65526
2325.54913	0.65760
2324.52871	0.66126
2323.50828	0.66546
2322.48786	0.66956
2321.46743	0.67324
2320.44701	0.67635
2319.42658	0.67917
2318.40616	0.68200
2317.38573	0.68515
2316.36531	0.68854
2315.34488	0.69186
2314.32446	0.69493
2313.30403	0.69731
2312.28361	0.69909
2311.26318	0.70077
2310.24276	0.70260
2309.22233	0.70463
2308.20191	0.70679
2307.18148	0.70898
2306.16106	0.71101
2305.14063	0.71310
2304.12020	0.71537
2303.09978	0.71766
2302.07935	0.71980
2301.05893	0.72180
2300.03850	0.72360
2299.01808	0.72528
2297.99765	0.72691
2296.97723	0.72843
2295.95680	0.72992
2294.93638	0.73148
2293.91595	0.73325
2292.89553	0.73513
2291.87510	0.73715
2290.85468	0.73926
2289.83425	0.74139
2288.81383	0.74356
2287.79340	0.74581
2286.77298	0.74820
2285.75255	0.75064
2284.73213	0.75311
2283.71170	0.75560
2282.69127	0.75808
2281.67085	0.76035
2280.65042	0.76238
2279.63000	0.76423
2278.60957	0.76592
2277.58915	0.76751
2276.56872	0.76901
2275.54830	0.77048
2274.52787	0.77186
2273.50745	0.77320
2272.48702	0.77454
2271.46660	0.77586
2270.44617	0.77710
2269.42575	0.77832
2268.40532	0.77957
2267.38490	0.78077
2266.36447	0.78185
2265.34405	0.78285
2264.32362	0.78380
2263.30319	0.78470
2262.28277	0.78556
2261.26234	0.78641
2260.24192	0.78732
2259.22149	0.78828
2258.20107	0.78926
2257.18064	0.79029
2256.16022	0.79133
2255.13979	0.79231
2254.11937	0.79321
2253.09894	0.79403
2252.07852	0.79466
2251.05809	0.79516
2250.03767	0.79570
2249.01724	0.79635
2247.99682	0.79708
2246.97639	0.79782
2245.95597	0.79856
2244.93554	0.79930
2243.91512	0.80002
2242.89469	0.80074
2241.87426	0.80150
2240.85384	0.80223
2239.83341	0.80294
2238.81299	0.80372
2237.79256	0.80457
2236.77214	0.80537
2235.75171	0.80608
2234.73129	0.80678
2233.71086	0.80750
2232.69044	0.80825
2231.67001	0.80898
2230.64959	0.80966
2229.62916	0.81034
2228.60874	0.81105
2227.58831	0.81173
2226.56789	0.81233
2225.54746	0.81290
2224.52704	0.81352
2223.50661	0.81413
2222.48619	0.81471
2221.46576	0.81531
2220.44533	0.81589
2219.42491	0.81641
2218.40448	0.81690
2217.38406	0.81739
2216.36363	0.81790
2215.34321	0.81841
2214.32278	0.81894
2213.30236	0.81944
2212.28193	0.81988
2211.26151	0.82032
2210.24108	0.82079
2209.22066	0.82124
2208.20023	0.82170
2207.17981	0.82223
2206.15938	0.82277
2205.13896	0.82323
2204.11853	0.82365
2203.09811	0.82410
2202.07768	0.82457
2201.05725	0.82507
2200.03683	0.82557
2199.01640	0.82606
2197.99598	0.82654
2196.97555	0.82700
2195.95513	0.82748
2194.93470	0.82804
2193.91428	0.82866
2192.89385	0.82931
2191.87343	0.82994
2190.85300	0.83055
2189.83258	0.83115
2188.81215	0.83183
2187.79173	0.83254
2186.77130	0.83319
2185.75088	0.83379
2184.73045	0.83449
2183.71003	0.83525
2182.68960	0.83595
2181.66918	0.83647
2180.64875	0.83675
2179.62832	0.83683
2178.60790	0.83690
2177.58747	0.83714
2176.56705	0.83757
2175.54662	0.83800
2174.52620	0.83823
2173.50577	0.83829
2172.48535	0.83835
2171.46492	0.83852
2170.44450	0.83885
2169.42407	0.83938
2168.40365	0.84014
2167.38322	0.84108
2166.36280	0.84216
2165.34237	0.84335
2164.32195	0.84452
2163.30152	0.84563
2162.28110	0.84679
2161.26067	0.84808
2160.24025	0.84950
2159.21982	0.85064
2158.19939	0.85068
2157.17897	0.84948
2156.15854	0.84769
2155.13812	0.84581
2154.11769	0.84397
2153.09727	0.84226
2152.07684	0.84075
2151.05642	0.83944
2150.03599	0.83827
2149.01557	0.83718
2147.99514	0.83616
2146.97472	0.83514
2145.95429	0.83401
2144.93387	0.83278
2143.91344	0.83148
2142.89302	0.83016
2141.87259	0.82887
2140.85217	0.82765
2139.83174	0.82642
2138.81131	0.82519
2137.79089	0.82405
2136.77046	0.82286
2135.75004	0.82144
2134.72961	0.81987
2133.70919	0.81811
2132.68876	0.81601
2131.66834	0.81365
2130.64791	0.81136
2129.62749	0.80930
2128.60706	0.80743
2127.58664	0.80569
2126.56621	0.80414
2125.54579	0.80281
2124.52536	0.80162
2123.50494	0.80055
2122.48451	0.79962
2121.46409	0.79885
2120.44366	0.79819
2119.42324	0.79761
2118.40281	0.79708
2117.38238	0.79668
2116.36196	0.79653
2115.34153	0.79649
2114.32111	0.79645
2113.30068	0.79662
2112.28026	0.79704
2111.25983	0.79749
2110.23941	0.79785
2109.21898	0.79816
2108.19856	0.79848
2107.17813	0.79877
2106.15771	0.79908
2105.13728	0.79944
2104.11686	0.79977
2103.09643	0.80004
2102.07601	0.80033
2101.05558	0.80067
2100.03516	0.80102
2099.01473	0.80144
2097.99431	0.80186
2096.97388	0.80216
2095.95345	0.80230
2094.93303	0.80224
2093.91260	0.80184
2092.89218	0.80121
2091.87175	0.80083
2090.85133	0.80064
2089.83090	0.80026
2088.81048	0.80000
2087.79005	0.80021
2086.76963	0.80069
2085.74920	0.80128
2084.72878	0.80192
2083.70835	0.80259
2082.68793	0.80326
2081.66750	0.80389
2080.64708	0.80459
2079.62665	0.80548
2078.60623	0.80644
2077.58580	0.80733
2076.56537	0.80818
2075.54495	0.80910
2074.52452	0.81004
2073.50410	0.81087
2072.48367	0.81163
2071.46325	0.81240
2070.44282	0.81316
2069.42240	0.81394
2068.40197	0.81472
2067.38155	0.81562
2066.36112	0.81663
2065.34070	0.81713
2064.32027	0.81695
2063.29985	0.81719
2062.27942	0.81820
2061.25900	0.81919
2060.23857	0.81976
2059.21815	0.82023
2058.19772	0.82090
2057.17730	0.82170
2056.15687	0.82262
2055.13644	0.82370
2054.11602	0.82478
2053.09559	0.82563
2052.07517	0.82653
2051.05474	0.82825
2050.03432	0.83081
2049.01389	0.83330
2047.99347	0.83507
2046.97304	0.83626
2045.95262	0.83722
2044.93219	0.83818
2043.91177	0.83912
2042.89134	0.84017
2041.87092	0.84099
2040.85049	0.84116
2039.83007	0.84153
2038.80964	0.84262
2037.78922	0.84383
2036.76879	0.84484
2035.74837	0.84585
2034.72794	0.84682
2033.70751	0.84747
2032.68709	0.84778
2031.66666	0.84795
2030.64624	0.84808
2029.62581	0.84814
2028.60539	0.84815
2027.58496	0.84813
2026.56454	0.84807
2025.54411	0.84799
2024.52369	0.84797
2023.50326	0.84792
2022.48284	0.84768
2021.46241	0.84744
2020.44199	0.84749
2019.42156	0.84778
2018.40114	0.84810
2017.38071	0.84773
2016.36029	0.84620
2015.33986	0.84516
2014.31943	0.84549
2013.29901	0.84603
2012.27858	0.84613
2011.25816	0.84608
2010.23773	0.84609
2009.21731	0.84618
2008.19688	0.84614
2007.17646	0.84578
2006.15603	0.84504
2005.13561	0.84398
2004.11518	0.84279
2003.09476	0.84172
2002.07433	0.84083
2001.05391	0.84015
2000.03348	0.83962
1999.01306	0.83904
1997.99263	0.83843
1996.97221	0.83807
1995.95178	0.83802
1994.93136	0.83834
1993.91093	0.83969
1992.89050	0.84093
1991.87008	0.83893
1990.84965	0.83607
1989.82923	0.83668
1988.80880	0.83840
1987.78838	0.83846
1986.76795	0.83842
1985.74753	0.83926
1984.72710	0.84020
1983.70668	0.84098
1982.68625	0.84179
1981.66583	0.84274
1980.64540	0.84394
1979.62498	0.84549
1978.60455	0.84720
1977.58413	0.84849
1976.56370	0.84892
1975.54328	0.84861
1974.52285	0.84799
1973.50243	0.84733
1972.48200	0.84665
1971.46157	0.84598
1970.44115	0.84548
1969.42072	0.84568
1968.40030	0.84622
1967.37987	0.84475
1966.35945	0.84141
1965.33902	0.83958
1964.31860	0.83971
1963.29817	0.83999
1962.27775	0.83971
1961.25732	0.83885
1960.23690	0.83761
1959.21647	0.83634
1958.19605	0.83503
1957.17562	0.83371
1956.15520	0.83247
1955.13477	0.83096
1954.11435	0.82922
1953.09392	0.82802
1952.07349	0.82727
1951.05307	0.82649
1950.03264	0.82558
1949.01222	0.82462
1947.99179	0.82394
1946.97137	0.82343
1945.95094	0.82217
1944.93052	0.82124
1943.91009	0.82263
1942.88967	0.82177
1941.86924	0.81541
1940.84882	0.81151
1939.82839	0.81227
1938.80797	0.81316
1937.78754	0.81277
1936.76712	0.81183
1935.74669	0.81082
1934.72627	0.80987
1933.70584	0.80872
1932.68542	0.80729
1931.66499	0.80595
1930.64456	0.80487
1929.62414	0.80380
1928.60371	0.80263
1927.58329	0.80139
1926.56286	0.80023
1925.54244	0.79975
1924.52201	0.80069
1923.50159	0.80019
1922.48116	0.79506
1921.46074	0.79048
1920.44031	0.79149
1919.41989	0.79601
1918.39946	0.79630
1917.37904	0.78884
1916.35861	0.78442
1915.33819	0.78589
1914.31776	0.78737
1913.29734	0.78729
1912.27691	0.78719
1911.25649	0.78772
1910.23606	0.78698
1909.21563	0.78435
1908.19521	0.78207
1907.17478	0.78071
1906.15436	0.78029
1905.13393	0.78043
1904.11351	0.77992
1903.09308	0.77898
1902.07266	0.77825
1901.05223	0.77749
1900.03181	0.77664
1899.01138	0.77585
1897.99096	0.77528
1896.97053	0.77552
1895.95011	0.77550
1894.92968	0.77279
1893.90926	0.76964
1892.88883	0.76913
1891.86841	0.77082
1890.84798	0.77367
1889.82755	0.77219
1888.80713	0.76491
1887.78670	0.76152
1886.76628	0.76320
1885.74585	0.76465
1884.72543	0.76407
1883.70500	0.76256
1882.68458	0.76162
1881.66415	0.76124
1880.64373	0.76075
1879.62330	0.75985
1878.60288	0.75871
1877.58245	0.75779
1876.56203	0.75706
1875.54160	0.75627
1874.52118	0.75545
1873.50075	0.75479
1872.48033	0.75480
1871.45990	0.75695
1870.43948	0.76092
1869.41905	0.75977
1868.39862	0.75035
1867.37820	0.74309
1866.35777	0.74162
1865.33735	0.74266
1864.31692	0.74438
1863.29650	0.74564
1862.27607	0.74587
1861.25565	0.74511
1860.23522	0.74415
1859.21480	0.74340
1858.19437	0.74224
1857.17395	0.74097
1856.15352	0.74022
1855.13310	0.73961
1854.11267	0.73892
1853.09225	0.73810
1852.07182	0.73714
1851.05140	0.73630
1850.03097	0.73648
1849.01055	0.73738
1847.99012	0.73585
1846.96969	0.73349
1845.94927	0.73788
1844.92884	0.74261
1843.90842	0.73022
1842.88799	0.71707
1841.86757	0.71771
1840.84714	0.72175
1839.82672	0.72397
1838.80629	0.72532
1837.78587	0.72510
1836.76544	0.72211
1835.74502	0.71942
1834.72459	0.71924
1833.70417	0.71925
1832.68374	0.71941
1831.66332	0.72362
1830.64289	0.72756
1829.62247	0.71761
1828.60204	0.70450
1827.58161	0.70570
1826.56119	0.71474
1825.54076	0.71664
1824.52034	0.70714
1823.49991	0.70241
1822.47949	0.70440
1821.45906	0.70584
1820.43864	0.70600
1819.41821	0.70612
1818.39779	0.70571
1817.37736	0.70272
1816.35694	0.69816
1815.33651	0.69507
1814.31609	0.69377
1813.29566	0.69341
1812.27524	0.69360
1811.25481	0.69146
1810.23439	0.68503
1809.21396	0.68105
1808.19354	0.68150
1807.17311	0.68114
1806.15268	0.68003
1805.13226	0.68012
1804.11183	0.68170
1803.09141	0.68362
1802.07098	0.68196
1801.05056	0.67897
1800.03013	0.67600
1799.00971	0.67041
1797.98928	0.66928
1796.96886	0.67337
1795.94843	0.67385
1794.92801	0.67362
1793.90758	0.68044
1792.88716	0.68308
1791.86673	0.66996
1790.84631	0.65848
1789.82588	0.65745
1788.80546	0.66144
1787.78503	0.66558
1786.76461	0.66933
1785.74418	0.67185
1784.72375	0.66780
1783.70333	0.66242
1782.68290	0.66457
1781.66248	0.66953
1780.64205	0.66742
1779.62163	0.66058
1778.60120	0.65875
1777.58078	0.66208
1776.56035	0.66577
1775.53993	0.66521
1774.51950	0.66706
1773.49908	0.67588
1772.47865	0.67260
1771.45823	0.65073
1770.43780	0.64362
1769.41738	0.65320
1768.39695	0.65866
1767.37653	0.65125
1766.35610	0.64850
1765.33567	0.65290
1764.31525	0.65801
1763.29482	0.66504
1762.27440	0.66650
1761.25397	0.65323
1760.23355	0.64579
1759.21312	0.65155
1758.19270	0.65983
1757.17227	0.66026
1756.15185	0.65094
1755.13142	0.64713
1754.11100	0.65242
1753.09057	0.66211
1752.07015	0.67011
1751.04972	0.66247
1750.02930	0.65147
1749.00887	0.65102
1747.98845	0.64896
1746.96802	0.64522
1745.94760	0.64670
1744.92717	0.65283
1743.90674	0.65619
1742.88632	0.65089
1741.86589	0.65078
1740.84547	0.66019
1739.82504	0.65837
1738.80462	0.64478
1737.78419	0.64376
1736.76377	0.65432
1735.74334	0.67231
1734.72292	0.68395
1733.70249	0.65368
1732.68207	0.62902
1731.66164	0.63690
1730.64122	0.64909
1729.62079	0.64798
1728.60037	0.64385
1727.57994	0.64675
1726.55952	0.65053
1725.53909	0.65287
1724.51867	0.65483
1723.49824	0.65355
1722.47781	0.65014
1721.45739	0.65080
1720.43696	0.65877
1719.41654	0.67352
1718.39611	0.67815
1717.37569	0.65176
1716.35526	0.63736
1715.33484	0.64104
1714.31441	0.63866
1713.29399	0.63546
1712.27356	0.64073
1711.25314	0.64800
1710.23271	0.64946
1709.21229	0.64762
1708.19186	0.65218
1707.17144	0.65908
1706.15101	0.65608
1705.13059	0.64664
1704.11016	0.63983
1703.08974	0.64282
1702.06931	0.66264
1701.04888	0.68697
1700.02846	0.65300
1699.00803	0.61736
1697.98761	0.63091
1696.96718	0.65561
1695.94676	0.65171
1694.92633	0.62269
1693.90591	0.62098
1692.88548	0.63255
1691.86506	0.64194
1690.84463	0.64680
1689.82421	0.64620
1688.80378	0.64184
1687.78336	0.63909
1686.76293	0.64713
1685.74251	0.66903
1684.72208	0.67788
1683.70166	0.62946
1682.68123	0.60759
1681.66080	0.61986
1680.64038	0.63225
1679.61995	0.63157
1678.59953	0.62989
1677.57910	0.63769
1676.55868	0.65159
1675.53825	0.65028
1674.51783	0.62601
1673.49740	0.62244
1672.47698	0.63506
1671.45655	0.64244
1670.43613	0.64392
1669.41570	0.63721
1668.39528	0.61924
1667.37485	0.61522
1666.35443	0.62317
1665.33400	0.63164
1664.31358	0.64048
1663.29315	0.64325
1662.27273	0.62946
1661.25230	0.61932
1660.23187	0.62221
1659.21145	0.62728
1658.19102	0.63017
1657.17060	0.63272
1656.15017	0.64082
1655.12975	0.65972
1654.10932	0.68252
1653.08890	0.64737
1652.06847	0.58846
1651.04805	0.59244
1650.02762	0.61425
1649.00720	0.63545
1647.98677	0.64539
1646.96635	0.63586
1645.94592	0.61297
1644.92550	0.60249
1643.90507	0.60929
1642.88465	0.61884
1641.86422	0.62302
1640.84380	0.62383
1639.82337	0.62542
1638.80294	0.63056
1637.78252	0.63748
1636.76209	0.64443
1635.74167	0.63546
1634.72124	0.60270
1633.70082	0.59623
1632.68039	0.60760
1631.65997	0.61637
1630.63954	0.62005
1629.61912	0.62431
1628.59869	0.62739
1627.57827	0.61992
1626.55784	0.61211
1625.53742	0.61772
1624.51699	0.62874
1623.49657	0.62404
1622.47614	0.60681
1621.45572	0.60398
1620.43529	0.60992
1619.41486	0.61638
1618.39444	0.62737
1617.37401	0.63506
1616.35359	0.61228
1615.33316	0.59306
1614.31274	0.59793
1613.29231	0.60598
1612.27189	0.60931
1611.25146	0.61121
1610.23104	0.61222
1609.21061	0.60987
1608.19019	0.60731
1607.16976	0.60644
1606.14934	0.60556
1605.12891	0.60641
1604.10849	0.60842
1603.08806	0.60831
1602.06764	0.60686
1601.04721	0.60621
1600.02679	0.60637
1599.00636	0.60723
1597.98593	0.60847
1596.96551	0.60946
1595.94508	0.60993
1594.92466	0.60917
1593.90423	0.60725
1592.88381	0.60662
1591.86338	0.60723
1590.84296	0.60699
1589.82253	0.60561
1588.80211	0.60416
1587.78168	0.60344
1586.76126	0.60302
1585.74083	0.60238
1584.72041	0.60173
1583.69998	0.60114
1582.67956	0.60032
1581.65913	0.59950
1580.63871	0.59914
1579.61828	0.60007
1578.59786	0.60532
1577.57743	0.61698
1576.55700	0.61595
1575.53658	0.58578
1574.51615	0.57554
1573.49573	0.58425
1572.47530	0.59320
1571.45488	0.60310
1570.43445	0.61215
1569.41403	0.59832
1568.39360	0.57810
1567.37318	0.58072
1566.35275	0.59248
1565.33233	0.59705
1564.31190	0.59009
1563.29148	0.58708
1562.27105	0.59756
1561.25063	0.62011
1560.23020	0.64544
1559.20978	0.63043
1558.18935	0.56595
1557.16892	0.54964
1556.14850	0.56759
1555.12807	0.58822
1554.10765	0.58560
1553.08722	0.57534
1552.06680	0.58252
1551.04637	0.59505
1550.02595	0.59299
1549.00552	0.58078
1547.98510	0.58103
1546.96467	0.59251
1545.94425	0.60344
1544.92382	0.60007
1543.90340	0.59359
1542.88297	0.59865
1541.86255	0.60121
1540.84212	0.60185
1539.82170	0.59348
1538.80127	0.56018
1537.78085	0.55500
1536.76042	0.57030
1535.73999	0.58840
1534.71957	0.60288
1533.69914	0.59840
1532.67872	0.57763
1531.65829	0.57260
1530.63787	0.57978
1529.61744	0.59008
1528.59702	0.59641
1527.57659	0.59434
1526.55617	0.59286
1525.53574	0.58948
1524.51532	0.58499
1523.49489	0.59362
1522.47447	0.60769
1521.45404	0.59897
1520.43362	0.57099
1519.41319	0.56960
1518.39277	0.58861
1517.37234	0.59817
1516.35192	0.58200
1515.33149	0.57341
1514.31106	0.57935
1513.29064	0.58921
1512.27021	0.59201
1511.24979	0.59021
1510.22936	0.59586
1509.20894	0.60590
1508.18851	0.61600
1507.16809	0.61364
1506.14766	0.57345
1505.12724	0.55338
1504.10681	0.56368
1503.08639	0.57936
1502.06596	0.58838
1501.04554	0.59188
1500.02511	0.59757
1499.00469	0.59825
1497.98426	0.59346
1496.96384	0.59374
1495.94341	0.58491
1494.92298	0.57587
1493.90256	0.58115
1492.88213	0.59146
1491.86171	0.60286
1490.84128	0.60813
1489.82086	0.59381
1488.80043	0.58221
1487.78001	0.58349
1486.75958	0.58182
1485.73916	0.58021
1484.71873	0.58431
1483.69831	0.58916
1482.67788	0.59276
1481.65746	0.59304
1480.63703	0.58919
1479.61661	0.58755
1478.59618	0.59163
1477.57576	0.59934
1476.55533	0.59980
1475.53491	0.59152
1474.51448	0.59501
1473.49405	0.60388
1472.47363	0.59148
1471.45320	0.57152
1470.43278	0.57127
1469.41235	0.58071
1468.39193	0.58756
1467.37150	0.59185
1466.35108	0.59878
1465.33065	0.59979
1464.31023	0.58511
1463.28980	0.57828
1462.26938	0.58392
1461.24895	0.59122
1460.22853	0.60012
1459.20810	0.60986
1458.18768	0.61413
1457.16725	0.59890
1456.14683	0.57138
1455.12640	0.56581
1454.10598	0.57504
1453.08555	0.58503
1452.06512	0.58875
1451.04470	0.58802
1450.02427	0.59135
1449.00385	0.59784
1447.98342	0.59528
1446.96300	0.58624
1445.94257	0.58577
1444.92215	0.59022
1443.90172	0.59288
1442.88130	0.59423
1441.86087	0.59528
1440.84045	0.59664
1439.82002	0.59903
1438.79960	0.60602
1437.77917	0.61743
1436.75875	0.61081
1435.73832	0.58815
1434.71790	0.58789
1433.69747	0.59704
1432.67704	0.60114
1431.65662	0.60413
1430.63619	0.60675
1429.61577	0.60186
1428.59534	0.59619
1427.57492	0.59716
1426.55449	0.60035
1425.53407	0.60447
1424.51364	0.60573
1423.49322	0.59838
1422.47279	0.59386
1421.45237	0.60152
1420.43194	0.61484
1419.41152	0.61176
1418.39109	0.59098
1417.37067	0.58565
1416.35024	0.58914
1415.32982	0.59223
1414.30939	0.59547
1413.28897	0.59827
1412.26854	0.59940
1411.24811	0.59864
1410.22769	0.59769
1409.20726	0.59758
1408.18684	0.59831
1407.16641	0.60107
1406.14599	0.60539
1405.12556	0.60380
1404.10514	0.59643
1403.08471	0.59520
1402.06429	0.59911
1401.04386	0.60463
1400.02344	0.60965
1399.00301	0.60556
1397.98259	0.59775
1396.96216	0.60017
1395.94174	0.60746
1394.92131	0.60539
1393.90089	0.59467
1392.88046	0.59280
1391.86004	0.59811
1390.83961	0.60156
1389.81918	0.60394
1388.79876	0.60888
1387.77833	0.60935
1386.75791	0.60020
1385.73748	0.59599
1384.71706	0.59942
1383.69663	0.60252
1382.67621	0.60345
1381.65578	0.60396
1380.63536	0.60495
1379.61493	0.60583
1378.59451	0.60564
1377.57408	0.60512
1376.55366	0.60722
1375.53323	0.61094
1374.51281	0.60948
1373.49238	0.60219
1372.47196	0.59927
1371.45153	0.60249
1370.43110	0.60669
1369.41068	0.60878
1368.39025	0.60724
1367.36983	0.60538
1366.34940	0.60653
1365.32898	0.61011
1364.30855	0.61519
1363.28813	0.61514
1362.26770	0.60859
1361.24728	0.60540
1360.22685	0.60618
1359.20643	0.60880
1358.18600	0.61149
1357.16558	0.61268
1356.14515	0.61387
1355.12473	0.61441
1354.10430	0.61365
1353.08388	0.61368
1352.06345	0.61474
1351.04303	0.61582
1350.02260	0.61646
1349.00217	0.61629
1347.98175	0.61622
1346.96132	0.61699
1345.94090	0.61785
1344.92047	0.61853
1343.90005	0.61919
1342.87962	0.62055
1341.85920	0.62379
1340.83877	0.62676
1339.81835	0.62503
1338.79792	0.62122
1337.77750	0.62121
1336.75707	0.62357
1335.73665	0.62559
1334.71622	0.62808
1333.69580	0.63089
1332.67537	0.63259
1331.65495	0.63307
1330.63452	0.63257
1329.61410	0.63166
1328.59367	0.63101
1327.57324	0.63084
1326.55282	0.63086
1325.53239	0.63095
1324.51197	0.63105
1323.49154	0.63100
1322.47112	0.63113
1321.45069	0.63182
1320.43027	0.63267
1319.40984	0.63230
1318.38942	0.63090
1317.36899	0.63018
1316.34857	0.63031
1315.32814	0.63099
1314.30772	0.63182
1313.28729	0.63164
1312.26687	0.63053
1311.24644	0.63017
1310.22602	0.63100
1309.20559	0.63174
1308.18516	0.63161
1307.16474	0.63124
1306.14431	0.63126
1305.12389	0.63139
1304.10346	0.63137
1303.08304	0.63133
1302.06261	0.63123
1301.04219	0.63107
1300.02176	0.63095
1299.00134	0.63090
1297.98091	0.63089
1296.96049	0.63063
1295.94006	0.63014
1294.91964	0.62986
1293.89921	0.62979
1292.87879	0.62965
1291.85836	0.62947
1290.83794	0.62922
1289.81751	0.62904
1288.79709	0.62896
1287.77666	0.62837
1286.75623	0.62751
1285.73581	0.62722
1284.71538	0.62723
1283.69496	0.62705
1282.67453	0.62678
1281.65411	0.62655
1280.63368	0.62627
1279.61326	0.62589
1278.59283	0.62557
1277.57241	0.62535
1276.55198	0.62510
1275.53156	0.62481
1274.51113	0.62460
1273.49071	0.62461
1272.47028	0.62446
1271.44986	0.62374
1270.42943	0.62303
1269.40901	0.62269
1268.38858	0.62243
1267.36816	0.62222
1266.34773	0.62201
1265.32730	0.62173
1264.30688	0.62152
1263.28645	0.62138
1262.26603	0.62139
1261.24560	0.62132
1260.22518	0.62063
1259.20475	0.61982
1258.18433	0.61958
1257.16390	0.61949
1256.14348	0.61928
1255.12305	0.61906
1254.10263	0.61881
1253.08220	0.61861
1252.06178	0.61843
1251.04135	0.61822
1250.02093	0.61798
1249.00050	0.61772
1247.98008	0.61746
1246.95965	0.61726
1245.93922	0.61711
1244.91880	0.61688
1243.89837	0.61645
1242.87795	0.61600
1241.85752	0.61571
1240.83710	0.61545
1239.81667	0.61514
1238.79625	0.61477
1237.77582	0.61437
1236.75540	0.61403
1235.73497	0.61371
1234.71455	0.61330
1233.69412	0.61286
1232.67370	0.61246
1231.65327	0.61213
1230.63285	0.61183
1229.61242	0.61154
1228.59200	0.61127
1227.57157	0.61107
1226.55115	0.61093
1225.53072	0.61067
1224.51029	0.61027
1223.48987	0.60998
1222.46944	0.60986
1221.44902	0.60974
1220.42859	0.60962
1219.40817	0.60946
1218.38774	0.60921
1217.36732	0.60895
1216.34689	0.60878
1215.32647	0.60864
1214.30604	0.60852
1213.28562	0.60842
1212.26519	0.60818
1211.24477	0.60786
1210.22434	0.60770
1209.20392	0.60768
1208.18349	0.60769
1207.16307	0.60765
1206.14264	0.60757
1205.12222	0.60752
1204.10179	0.60752
1203.08136	0.60747
1202.06094	0.60735
1201.04051	0.60726
1200.02009	0.60724
1198.99966	0.60722
1197.97924	0.60710
1196.95881	0.60697
1195.93839	0.60696
1194.91796	0.60697
1193.89754	0.60694
1192.87711	0.60691
1191.85669	0.60691
1190.83626	0.60693
1189.81584	0.60698
1188.79541	0.60702
1187.77499	0.60699
1186.75456	0.60687
1185.73414	0.60678
1184.71371	0.60685
1183.69328	0.60698
1182.67286	0.60711
1181.65243	0.60725
1180.63201	0.60737
1179.61158	0.60747
1178.59116	0.60759
1177.57073	0.60776
1176.55031	0.60798
1175.52988	0.60823
1174.50946	0.60834
1173.48903	0.60841
1172.46861	0.60861
1171.44818	0.60886
1170.42776	0.60907
1169.40733	0.60929
1168.38691	0.60949
1167.36648	0.60966
1166.34606	0.60982
1165.32563	0.60993
1164.30521	0.61004
1163.28478	0.61023
1162.26435	0.61045
1161.24393	0.61064
1160.22350	0.61087
1159.20308	0.61115
1158.18265	0.61140
1157.16223	0.61158
1156.14180	0.61173
1155.12138	0.61191
1154.10095	0.61214
1153.08053	0.61237
1152.06010	0.61257
1151.03968	0.61277
1150.01925	0.61294
1148.99883	0.61311
1147.97840	0.61334
1146.95798	0.61357
1145.93755	0.61375
1144.91713	0.61396
1143.89670	0.61420
1142.87628	0.61444
1141.85585	0.61469
1140.83542	0.61491
1139.81500	0.61507
1138.79457	0.61524
1137.77415	0.61542
1136.75372	0.61554
1135.73330	0.61562
1134.71287	0.61568
1133.69245	0.61576
1132.67202	0.61585
1131.65160	0.61592
1130.63117	0.61598
1129.61075	0.61601
1128.59032	0.61602
1127.56990	0.61605
1126.54947	0.61613
1125.52905	0.61620
1124.50862	0.61627
1123.48820	0.61633
1122.46777	0.61636
1121.44734	0.61638
1120.42692	0.61641
1119.40649	0.61642
1118.38607	0.61639
1117.36564	0.61633
1116.34522	0.61626
1115.32479	0.61616
1114.30437	0.61604
1113.28394	0.61594
1112.26352	0.61583
1111.24309	0.61568
1110.22267	0.61552
1109.20224	0.61538
1108.18182	0.61524
1107.16139	0.61505
1106.14097	0.61480
1105.12054	0.61455
1104.10012	0.61432
1103.07969	0.61418
1102.05927	0.61411
1101.03884	0.61402
1100.01841	0.61391
1098.99799	0.61381
1097.97756	0.61371
1096.95714	0.61364
1095.93671	0.61361
1094.91629	0.61354
1093.89586	0.61347
1092.87544	0.61343
1091.85501	0.61342
1090.83459	0.61345
1089.81416	0.61351
1088.79374	0.61354
1087.77331	0.61355
1086.75289	0.61360
1085.73246	0.61370
1084.71204	0.61382
1083.69161	0.61389
1082.67119	0.61385
1081.65076	0.61375
1080.63034	0.61366
1079.60991	0.61362
1078.58948	0.61362
1077.56906	0.61362
1076.54863	0.61356
1075.52821	0.61351
1074.50778	0.61355
1073.48736	0.61366
1072.46693	0.61375
1071.44651	0.61381
1070.42608	0.61388
1069.40566	0.61399
1068.38523	0.61416
1067.36481	0.61433
1066.34438	0.61443
1065.32396	0.61448
1064.30353	0.61458
1063.28311	0.61474
1062.26268	0.61487
1061.24226	0.61487
1060.22183	0.61475
1059.20140	0.61461
1058.18098	0.61457
1057.16055	0.61460
1056.14013	0.61458
1055.11970	0.61446
1054.09928	0.61430
1053.07885	0.61413
1052.05843	0.61389
1051.03800	0.61352
1050.01758	0.61306
1048.99715	0.61264
1047.97673	0.61228
1046.95630	0.61191
1045.93588	0.61148
1044.91545	0.61096
1043.89503	0.61042
1042.87460	0.60991
1041.85418	0.60942
1040.83375	0.60893
1039.81333	0.60843
1038.79290	0.60791
1037.77247	0.60739
1036.75205	0.60688
1035.73162	0.60642
1034.71120	0.60591
1033.69077	0.60532
1032.67035	0.60475
1031.64992	0.60424
1030.62950	0.60367
1029.60907	0.60297
1028.58865	0.60225
1027.56822	0.60163
1026.54780	0.60110
1025.52737	0.60057
1024.50695	0.60000
1023.48652	0.59938
1022.46610	0.59877
1021.44567	0.59823
1020.42525	0.59768
1019.40482	0.59711
1018.38440	0.59657
1017.36397	0.59600
1016.34354	0.59540
1015.32312	0.59486
1014.30269	0.59439
1013.28227	0.59388
1012.26184	0.59331
1011.24142	0.59277
1010.22099	0.59232
1009.20057	0.59186
1008.18014	0.59132
1007.15972	0.59077
1006.13929	0.59036
1005.11887	0.59007
1004.09844	0.58976
1003.07802	0.58935
1002.05759	0.58890
1001.03717	0.58849
1000.01674	0.58815
998.99632	0.58783
997.97589	0.58750
996.95547	0.58716
995.93504	0.58682
994.91461	0.58652
993.89419	0.58628
992.87376	0.58601
991.85334	0.58566
990.83291	0.58530
989.81249	0.58500
988.79206	0.58474
987.77164	0.58449
986.75121	0.58414
985.73079	0.58369
984.71036	0.58330
983.68994	0.58299
982.66951	0.58266
981.64909	0.58226
980.62866	0.58189
979.60824	0.58157
978.58781	0.58129
977.56739	0.58101
976.54696	0.58064
975.52653	0.58020
974.50611	0.57981
973.48568	0.57945
972.46526	0.57911
971.44483	0.57877
970.42441	0.57840
969.40398	0.57800
968.38356	0.57768
967.36313	0.57742
966.34271	0.57714
965.32228	0.57683
964.30186	0.57649
963.28143	0.57614
962.26101	0.57585
961.24058	0.57558
960.22016	0.57526
959.19973	0.57489
958.17931	0.57456
957.15888	0.57426
956.13846	0.57399
955.11803	0.57372
954.09760	0.57342
953.07718	0.57308
952.05675	0.57278
951.03633	0.57253
950.01590	0.57227
948.99548	0.57199
947.97505	0.57174
946.95463	0.57152
945.93420	0.57128
944.91378	0.57099
943.89335	0.57069
942.87293	0.57037
941.85250	0.57009
940.83208	0.56988
939.81165	0.56968
938.79123	0.56940
937.77080	0.56912
936.75038	0.56889
935.72995	0.56867
934.70953	0.56837
933.68910	0.56804
932.66867	0.56777
931.64825	0.56755
930.62782	0.56741
929.60740	0.56729
928.58697	0.56707
927.56655	0.56682
926.54612	0.56664
925.52570	0.56649
924.50527	0.56631
923.48485	0.56608
922.46442	0.56582
921.44400	0.56559
920.42357	0.56543
919.40315	0.56531
918.38272	0.56511
917.36230	0.56487
916.34187	0.56467
915.32145	0.56451
914.30102	0.56440
913.28059	0.56425
912.26017	0.56403
911.23974	0.56386
910.21932	0.56374
909.19889	0.56359
908.17847	0.56348
907.15804	0.56340
906.13762	0.56328
905.11719	0.56308
904.09677	0.56287
903.07634	0.56270
902.05592	0.56255
901.03549	0.56238
900.01507	0.56224
898.99464	0.56218
897.97422	0.56217
896.95379	0.56208
895.93337	0.56189
894.91294	0.56174
893.89252	0.56168
892.87209	0.56163
891.85166	0.56153
890.83124	0.56138
889.81081	0.56126
888.79039	0.56121
887.76996	0.56118
886.74954	0.56107
885.72911	0.56091
884.70869	0.56081
883.68826	0.56081
882.66784	0.56088
881.64741	0.56087
880.62699	0.56072
879.60656	0.56055
878.58614	0.56047
877.56571	0.56049
876.54529	0.56054
875.52486	0.56051
874.50444	0.56044
873.48401	0.56046
872.46359	0.56081
871.44316	0.56191
870.42273	0.56329
869.40231	0.56304
868.38188	0.56116
867.36146	0.55979
866.34103	0.55942
865.32061	0.55934
864.30018	0.55930
863.27976	0.55934
862.25933	0.55937
861.23891	0.55936
860.21848	0.55941
859.19806	0.55946
858.17763	0.55940
857.15721	0.55926
856.13678	0.55917
855.11636	0.55915
854.09593	0.55912
853.07551	0.55906
852.05508	0.55904
851.03465	0.55906
850.01423	0.55903
848.99380	0.55894
847.97338	0.55889
846.95295	0.55887
845.93253	0.55881
844.91210	0.55877
843.89168	0.55870
842.87125	0.55857
841.85083	0.55851
840.83040	0.55855
839.80998	0.55858
838.78955	0.55855
837.76913	0.55839
836.74870	0.55814
835.72828	0.55807
834.70785	0.55825
833.68743	0.55838
832.66700	0.55841
831.64658	0.55846
830.62615	0.55849
829.60572	0.55850
828.58530	0.55859
827.56487	0.55872
826.54445	0.55884
825.52402	0.55905
824.50360	0.55926
823.48317	0.55937
822.46275	0.55963
821.44232	0.56008
820.42190	0.56046
819.40147	0.56079
818.38105	0.56125
817.36062	0.56181
816.34020	0.56239
815.31977	0.56290
814.29935	0.56331
813.27892	0.56383
812.25850	0.56455
811.23807	0.56525
810.21765	0.56591
809.19722	0.56665
808.17679	0.56745
807.15637	0.56832
806.13594	0.56922
805.11552	0.57006
804.09509	0.57082
803.07467	0.57148
802.05424	0.57193
801.03382	0.57205
800.01339	0.57187
798.99297	0.57128
797.97254	0.57034
796.95212	0.56933
795.93169	0.56818
794.91127	0.56684
793.89084	0.56551
792.87042	0.56422
791.84999	0.56294
790.82957	0.56183
789.80914	0.56088
788.78871	0.55996
787.76829	0.55913
786.74786	0.55847
785.72744	0.55800
784.70701	0.55769
783.68659	0.55740
782.66616	0.55706
781.64574	0.55672
780.62531	0.55646
779.60489	0.55630
778.58446	0.55620
777.56404	0.55603
776.54361	0.55566
775.52319	0.55536
774.50276	0.55529
773.48234	0.55526
772.46191	0.55516
771.44149	0.55499
770.42106	0.55483
769.40064	0.55481
768.38021	0.55488
767.35978	0.55491
766.33936	0.55492
765.31893	0.55496
764.29851	0.55494
763.27808	0.55491
762.25766	0.55496
761.23723	0.55502
760.21681	0.55499
759.19638	0.55500
758.17596	0.55508
757.15553	0.55513
756.13511	0.55519
755.11468	0.55519
754.09426	0.55514
753.07383	0.55523
752.05341	0.55539
751.03298	0.55554
750.01256	0.55576
748.99213	0.55594
747.97171	0.55594
746.95128	0.55600
745.93085	0.55626
744.91043	0.55650
743.89000	0.55668
742.86958	0.55687
741.84915	0.55699
740.82873	0.55707
739.80830	0.55718
738.78788	0.55725
737.76745	0.55724
736.74703	0.55727
735.72660	0.55733
734.70618	0.55734
733.68575	0.55733
732.66533	0.55735
731.64490	0.55736
730.62448	0.55734
729.60405	0.55728
728.58363	0.55719
727.56320	0.55724
726.54277	0.55741
725.52235	0.55751
724.50192	0.55756
723.48150	0.55768
722.46107	0.55810
721.44065	0.55843
720.42022	0.55781
719.39980	0.55701
718.37937	0.55726
717.35895	0.55791
716.33852	0.55833
715.31810	0.55866
714.29767	0.55878
713.27725	0.55864
712.25682	0.55854
711.23640	0.55867
710.21597	0.55889
709.19555	0.55908
708.17512	0.55919
707.15470	0.55925
706.13427	0.55940
705.11384	0.55964
704.09342	0.55974
703.07299	0.55980
702.05257	0.56000
701.03214	0.56018
700.01172	0.56032
698.99129	0.56056
697.97087	0.56074
696.95044	0.56084
695.93002	0.56114
694.90959	0.56158
693.88917	0.56174
692.86874	0.56171
691.84832	0.56195
690.82789	0.56249
689.80747	0.56284
688.78704	0.56282
687.76662	0.56288
686.74619	0.56333
685.72577	0.56381
684.70534	0.56407
683.68491	0.56430
682.66449	0.56477
681.64406	0.56539
680.62364	0.56607
679.60321	0.56679
678.58279	0.56749
677.56236	0.56830
676.54194	0.56939
675.52151	0.57058
674.50109	0.57180
673.48066	0.57338
672.46024	0.57558
671.43981	0.57892
670.41939	0.58426
669.39896	0.59107
668.37854	0.59158
667.35811	0.58728
666.33769	0.59702
665.31726	0.60948
664.29683	0.61968
663.27641	0.62860
662.25598	0.63716
661.23556	0.64451
660.21513	0.64903
659.19471	0.64930
658.17428	0.64516
657.15386	0.63754
656.13343	0.62809
655.11301	0.61896
654.09258	0.61226
653.07216	0.60953
652.05173	0.61025
651.03131	0.61105
650.01088	0.60930
648.99046	0.60567
647.97003	0.60210
646.94961	0.59949
645.92918	0.59761
644.90876	0.59595
643.88833	0.59424
642.86790	0.59266
641.84748	0.59158
640.82705	0.59072
639.80663	0.58973
638.78620	0.58903
637.76578	0.58881
636.74535	0.58882
635.72493	0.58883
634.70450	0.58876
633.68408	0.58862
632.66365	0.58845
631.64323	0.58830
630.62280	0.58814
629.60238	0.58820
628.58195	0.58877
627.56153	0.58971
626.54110	0.59050
625.52068	0.59074
624.50025	0.59089
623.47983	0.59144
622.45940	0.59177
621.43897	0.59151
620.41855	0.59122
619.39812	0.59142
618.37770	0.59162
617.35727	0.59129
616.33685	0.59097
615.31642	0.59106
614.29600	0.59141
613.27557	0.59154
612.25515	0.59101
611.23472	0.59033
610.21430	0.59030
609.19387	0.59069
608.17345	0.59078
607.15302	0.59064
606.13260	0.59070
605.11217	0.59090
604.09175	0.59125
603.07132	0.59160
602.05089	0.59183
601.03047	0.59216
600.01004	0.59222
598.98962	0.59182
597.96919	0.59138
596.94877	0.59112
595.92834	0.59121
594.90792	0.59170
593.88749	0.59276
592.86707	0.59383
591.84664	0.59352
590.82622	0.59260
589.80579	0.59302
588.78537	0.59393
587.76494	0.59397
586.74452	0.59396
585.72409	0.59458
584.70367	0.59493
583.68324	0.59523
582.66282	0.59585
581.64239	0.59571
580.62196	0.59486
579.60154	0.59454
578.58111	0.59500
577.56069	0.59564
576.54026	0.59572
575.51984	0.59550
574.49941	0.59595
573.47899	0.59668
572.45856	0.59672
571.43814	0.59616
570.41771	0.59592
569.39729	0.59636
568.37686	0.59661
567.35644	0.59632
566.33601	0.59602
565.31559	0.59616
564.29516	0.59637
563.27474	0.59625
562.25431	0.59634
561.23389	0.59699
560.21346	0.59779
559.19303	0.59783
558.17261	0.59727
557.15218	0.59705
556.13176	0.59747
555.11133	0.59807
554.09091	0.59852
553.07048	0.59888
552.05006	0.59934
551.02963	0.59957
550.00921	0.59919
548.98878	0.59930
547.96836	0.60016
546.94793	0.60033
545.92751	0.59976
544.90708	0.59966
543.88666	0.59981
542.86623	0.59981
541.84581	0.59953
540.82538	0.59829
539.80495	0.59707
538.78453	0.59769
537.76410	0.59946
536.74368	0.59972
535.72325	0.59826
534.70283	0.59728
533.68240	0.59736
532.66198	0.59782
531.64155	0.59774
530.62113	0.59631
529.60070	0.59482
528.58028	0.59533
527.55985	0.59720
526.53943	0.59798
525.51900	0.59688
524.49858	0.59535
523.47815	0.59478
522.45773	0.59560
521.43730	0.59704
520.41688	0.59830
519.39645	0.59791
518.37602	0.59585
517.35560	0.59508
516.33517	0.59596
515.31475	0.59679
514.29432	0.59637
513.27390	0.59384
512.25347	0.59026
511.23305	0.58898
510.21262	0.59263
509.19220	0.60024
508.17177	0.60660
507.15135	0.60608
506.13092	0.60048
505.11050	0.59630
504.09007	0.59296
503.06965	0.58910
502.04922	0.58835
501.02880	0.58860
500.00837	0.59070
498.98795	0.60205
