3998.02611	0.50950
3997.00569	0.50945
3995.98526	0.50946
3994.96484	0.50930
3993.94441	0.50917
3992.92399	0.50915
3991.90356	0.50895
3990.88314	0.50868
3989.86271	0.50869
3988.84229	0.50877
3987.82186	0.50873
3986.80143	0.50872
3985.78101	0.50891
3984.76058	0.50916
3983.74016	0.50927
3982.71973	0.50927
3981.69931	0.50922
3980.67888	0.50918
3979.65846	0.50918
3978.63803	0.50919
3977.61761	0.50899
3976.59718	0.50862
3975.57676	0.50861
3974.55633	0.50881
3973.53591	0.50871
3972.51548	0.50843
3971.49506	0.50840
3970.47463	0.50848
3969.45421	0.50840
3968.43378	0.50835
3967.41336	0.50854
3966.39293	0.50879
3965.37250	0.50913
3964.35208	0.50955
3963.33165	0.50963
3962.31123	0.50930
3961.29080	0.50914
3960.27038	0.50931
3959.24995	0.50923
3958.22953	0.50889
3957.20910	0.50879
3956.18868	0.50901
3955.16825	0.50923
3954.14783	0.50928
3953.12740	0.50932
3952.10698	0.50947
3951.08655	0.50964
3950.06613	0.50974
3949.04570	0.50987
3948.02528	0.50980
3947.00485	0.50938
3945.98442	0.50913
3944.96400	0.50890
3943.94357	0.50856
3942.92315	0.50845
3941.90272	0.50878
3940.88230	0.50919
3939.86187	0.50885
3938.84145	0.50832
3937.82102	0.50861
3936.80060	0.50971
3935.78017	0.51098
3934.75975	0.51190
3933.73932	0.51246
3932.71890	0.51254
3931.69847	0.51186
3930.67805	0.51059
3929.65762	0.50930
3928.63720	0.50869
3927.61677	0.50885
3926.59635	0.50911
3925.57592	0.50926
3924.55549	0.50964
3923.53507	0.51033
3922.51464	0.51077
3921.49422	0.51071
3920.47379	0.51074
3919.45337	0.51129
3918.43294	0.51197
3917.41252	0.51191
3916.39209	0.51121
3915.37167	0.51063
3914.35124	0.51026
3913.33082	0.51007
3912.31039	0.51042
3911.28997	0.51137
3910.26954	0.51260
3909.24912	0.51381
3908.22869	0.51487
3907.20827	0.51566
3906.18784	0.51606
3905.16742	0.51622
3904.14699	0.51624
3903.12656	0.51582
3902.10614	0.51431
3901.08571	0.51150
3900.06529	0.50843
3899.04486	0.50653
3898.02444	0.50673
3897.00401	0.50835
3895.98359	0.50998
3894.96316	0.51162
3893.94274	0.51355
3892.92231	0.51516
3891.90189	0.51575
3890.88146	0.51575
3889.86104	0.51597
3888.84061	0.51608
3887.82019	0.51570
3886.79976	0.51549
3885.77934	0.51600
3884.75891	0.51674
3883.73848	0.51676
3882.71806	0.51537
3881.69763	0.51353
3880.67721	0.51285
3879.65678	0.51362
3878.63636	0.51503
3877.61593	0.51571
3876.59551	0.51559
3875.57508	0.51575
3874.55466	0.51693
3873.53423	0.51898
3872.51381	0.52058
3871.49338	0.51990
3870.47296	0.51777
3869.45253	0.51670
3868.43211	0.51715
3867.41168	0.51702
3866.39126	0.51538
3865.37083	0.51415
3864.35041	0.51483
3863.32998	0.51645
3862.30955	0.51703
3861.28913	0.51677
3860.26870	0.51727
3859.24828	0.51877
3858.22785	0.52108
3857.20743	0.52438
3856.18700	0.52794
3855.16658	0.52964
3854.14615	0.52808
3853.12573	0.52433
3852.10530	0.52003
3851.08488	0.51594
3850.06445	0.51329
3849.04403	0.51310
3848.02360	0.51537
3847.00318	0.51900
3845.98275	0.52232
3844.96233	0.52461
3843.94190	0.52628
3842.92148	0.52775
3841.90105	0.52862
3840.88062	0.52808
3839.86020	0.52651
3838.83977	0.52499
3837.81935	0.52375
3836.79892	0.52297
3835.77850	0.52242
3834.75807	0.52196
3833.73765	0.52218
3832.71722	0.52299
3831.69680	0.52392
3830.67637	0.52551
3829.65595	0.52722
3828.63552	0.52778
3827.61510	0.52766
3826.59467	0.52847
3825.57425	0.53064
3824.55382	0.53293
3823.53340	0.53389
3822.51297	0.53332
3821.49255	0.53229
3820.47212	0.53220
3819.45169	0.53253
3818.43127	0.53147
3817.41084	0.52900
3816.39042	0.52731
3815.36999	0.52832
3814.34957	0.53077
3813.32914	0.53215
3812.30872	0.53258
3811.28829	0.53398
3810.26787	0.53679
3809.24744	0.53953
3808.22702	0.54082
3807.20659	0.54089
3806.18617	0.54118
3805.16574	0.54172
3804.14532	0.54105
3803.12489	0.53898
3802.10447	0.53702
3801.08404	0.53665
3800.06361	0.53771
3799.04319	0.53798
3798.02276	0.53672
3797.00234	0.53592
3795.98191	0.53726
3794.96149	0.53974
3793.94106	0.54155
3792.92064	0.54245
3791.90021	0.54341
3790.87979	0.54486
3789.85936	0.54646
3788.83894	0.54783
3787.81851	0.54878
3786.79809	0.54916
3785.77766	0.54908
3784.75724	0.54914
3783.73681	0.54981
3782.71639	0.55075
3781.69596	0.55106
3780.67554	0.55072
3779.65511	0.55057
3778.63468	0.55119
3777.61426	0.55207
3776.59383	0.55240
3775.57341	0.55263
3774.55298	0.55372
3773.53256	0.55561
3772.51213	0.55738
3771.49171	0.55825
3770.47128	0.55857
3769.45086	0.55909
3768.43043	0.55968
3767.41001	0.55920
3766.38958	0.55791
3765.36916	0.55787
3764.34873	0.55964
3763.32831	0.56171
3762.30788	0.56279
3761.28746	0.56319
3760.26703	0.56396
3759.24661	0.56535
3758.22618	0.56670
3757.20575	0.56735
3756.18533	0.56800
3755.16490	0.56963
3754.14448	0.57145
3753.12405	0.57262
3752.10363	0.57349
3751.08320	0.57392
3750.06278	0.57273
3749.04235	0.57114
3748.02193	0.57130
3747.00150	0.57199
3745.98108	0.57148
3744.96065	0.57196
3743.94023	0.57520
3742.91980	0.57904
3741.89938	0.58016
3740.87895	0.57974
3739.85853	0.58109
3738.83810	0.58471
3737.81767	0.58865
3736.79725	0.59161
3735.77682	0.59354
3734.75640	0.59434
3733.73597	0.59377
3732.71555	0.59201
3731.69512	0.59060
3730.67470	0.59092
3729.65427	0.59177
3728.63385	0.59158
3727.61342	0.59065
3726.59300	0.58979
3725.57257	0.58918
3724.55215	0.58816
3723.53172	0.58622
3722.51130	0.58389
3721.49087	0.58214
3720.47045	0.58096
3719.45002	0.57961
3718.42960	0.57835
3717.40917	0.57800
3716.38874	0.57858
3715.36832	0.57982
3714.34789	0.58143
3713.32747	0.58293
3712.30704	0.58390
3711.28662	0.58444
3710.26619	0.58455
3709.24577	0.58429
3708.22534	0.58472
3707.20492	0.58624
3706.18449	0.58812
3705.16407	0.59019
3704.14364	0.59215
3703.12322	0.59321
3702.10279	0.59328
3701.08237	0.59327
3700.06194	0.59337
3699.04152	0.59282
3698.02109	0.59180
3697.00067	0.59144
3695.98024	0.59221
3694.95981	0.59369
3693.93939	0.59508
3692.91896	0.59576
3691.89854	0.59572
3690.87811	0.59517
3689.85769	0.59387
3688.83726	0.59167
3687.81684	0.58979
3686.79641	0.58956
3685.77599	0.58984
3684.75556	0.59007
3683.73514	0.59118
3682.71471	0.59334
3681.69429	0.59551
3680.67386	0.59719
3679.65344	0.59882
3678.63301	0.60044
3677.61259	0.60064
3676.59216	0.59840
3675.57173	0.59601
3674.55131	0.59597
3673.53088	0.59689
3672.51046	0.59560
3671.49003	0.59221
3670.46961	0.59026
3669.44918	0.59178
3668.42876	0.59486
3667.40833	0.59686
3666.38791	0.59756
3665.36748	0.59813
3664.34706	0.59952
3663.32663	0.60161
3662.30621	0.60369
3661.28578	0.60539
3660.26536	0.60681
3659.24493	0.60793
3658.22451	0.60828
3657.20408	0.60768
3656.18366	0.60709
3655.16323	0.60764
3654.14280	0.60853
3653.12238	0.60836
3652.10195	0.60738
3651.08153	0.60674
3650.06110	0.60687
3649.04068	0.60630
3648.02025	0.60366
3646.99983	0.60039
3645.97940	0.59925
3644.95898	0.60041
3643.93855	0.60233
3642.91813	0.60449
3641.89770	0.60708
3640.87728	0.60965
3639.85685	0.61147
3638.83643	0.61261
3637.81600	0.61373
3636.79558	0.61506
3635.77515	0.61603
3634.75473	0.61656
3633.73430	0.61761
3632.71387	0.61992
3631.69345	0.62230
3630.67302	0.62257
3629.65260	0.62076
3628.63217	0.61885
3627.61175	0.61833
3626.59132	0.61836
3625.57090	0.61829
3624.55047	0.61914
3623.53005	0.62142
3622.50962	0.62412
3621.48920	0.62595
3620.46877	0.62646
3619.44835	0.62607
3618.42792	0.62542
3617.40750	0.62446
3616.38707	0.62291
3615.36665	0.62088
3614.34622	0.61896
3613.32579	0.61809
3612.30537	0.61869
3611.28494	0.62011
3610.26452	0.62100
3609.24409	0.62094
3608.22367	0.62097
3607.20324	0.62172
3606.18282	0.62274
3605.16239	0.62380
3604.14197	0.62483
3603.12154	0.62574
3602.10112	0.62656
3601.08069	0.62720
3600.06027	0.62771
3599.03984	0.62808
3598.01942	0.62815
3596.99899	0.62796
3595.97857	0.62774
3594.95814	0.62767
3593.93772	0.62791
3592.91729	0.62845
3591.89686	0.62924
3590.87644	0.63003
3589.85601	0.63036
3588.83559	0.63003
3587.81516	0.62919
3586.79474	0.62820
3585.77431	0.62737
3584.75389	0.62690
3583.73346	0.62675
3582.71304	0.62710
3581.69261	0.62813
3580.67219	0.62933
3579.65176	0.63026
3578.63134	0.63089
3577.61091	0.63119
3576.59049	0.63117
3575.57006	0.63115
3574.54964	0.63133
3573.52921	0.63174
3572.50879	0.63242
3571.48836	0.63321
3570.46793	0.63373
3569.44751	0.63379
3568.42708	0.63312
3567.40666	0.63159
3566.38623	0.62965
3565.36581	0.62804
3564.34538	0.62741
3563.32496	0.62766
3562.30453	0.62854
3561.28411	0.62996
3560.26368	0.63150
3559.24326	0.63279
3558.22283	0.63368
3557.20241	0.63411
3556.18198	0.63446
3555.16156	0.63500
3554.14113	0.63526
3553.12071	0.63506
3552.10028	0.63493
3551.07985	0.63537
3550.05943	0.63595
3549.03900	0.63608
3548.01858	0.63596
3546.99815	0.63594
3545.97773	0.63594
3544.95730	0.63563
3543.93688	0.63517
3542.91645	0.63515
3541.89603	0.63567
3540.87560	0.63644
3539.85518	0.63724
3538.83475	0.63789
3537.81433	0.63822
3536.79390	0.63819
3535.77348	0.63828
3534.75305	0.63873
3533.73263	0.63902
3532.71220	0.63896
3531.69178	0.63901
3530.67135	0.63925
3529.65092	0.63924
3528.63050	0.63886
3527.61007	0.63858
3526.58965	0.63880
3525.56922	0.63908
3524.54880	0.63891
3523.52837	0.63845
3522.50795	0.63849
3521.48752	0.63936
3520.46710	0.64003
3519.44667	0.64013
3518.42625	0.64028
3517.40582	0.64080
3516.38540	0.64142
3515.36497	0.64196
3514.34455	0.64242
3513.32412	0.64271
3512.30370	0.64282
3511.28327	0.64261
3510.26285	0.64207
3509.24242	0.64160
3508.22199	0.64189
3507.20157	0.64280
3506.18114	0.64322
3505.16072	0.64275
3504.14029	0.64206
3503.11987	0.64204
3502.09944	0.64290
3501.07902	0.64345
3500.05859	0.64326
3499.03817	0.64310
3498.01774	0.64342
3496.99732	0.64380
3495.97689	0.64411
3494.95647	0.64443
3493.93604	0.64470
3492.91562	0.64488
3491.89519	0.64517
3490.87477	0.64552
3489.85434	0.64568
3488.83391	0.64565
3487.81349	0.64561
3486.79306	0.64585
3485.77264	0.64619
3484.75221	0.64627
3483.73179	0.64593
3482.71136	0.64531
3481.69094	0.64514
3480.67051	0.64582
3479.65009	0.64639
3478.62966	0.64643
3477.60924	0.64640
3476.58881	0.64654
3475.56839	0.64682
3474.54796	0.64701
3473.52754	0.64712
3472.50711	0.64720
3471.48669	0.64729
3470.46626	0.64756
3469.44584	0.64791
3468.42541	0.64805
3467.40498	0.64803
3466.38456	0.64823
3465.36413	0.64857
3464.34371	0.64852
3463.32328	0.64811
3462.30286	0.64798
3461.28243	0.64830
3460.26201	0.64859
3459.24158	0.64866
3458.22116	0.64870
3457.20073	0.64885
3456.18031	0.64901
3455.15988	0.64910
3454.13946	0.64921
3453.11903	0.64939
3452.09861	0.64957
3451.07818	0.64981
3450.05776	0.65013
3449.03733	0.65022
3448.01691	0.64974
3446.99648	0.64909
3445.97605	0.64937
3444.95563	0.65000
3443.93520	0.64997
3442.91478	0.64974
3441.89435	0.64993
3440.87393	0.65036
3439.85350	0.65064
3438.83308	0.65079
3437.81265	0.65108
3436.79223	0.65143
3435.77180	0.65166
3434.75138	0.65183
3433.73095	0.65198
3432.71053	0.65202
3431.69010	0.65196
3430.66968	0.65200
3429.64925	0.65214
3428.62883	0.65226
3427.60840	0.65232
3426.58797	0.65245
3425.56755	0.65261
3424.54712	0.65275
3423.52670	0.65292
3422.50627	0.65290
3421.48585	0.65262
3420.46542	0.65257
3419.44500	0.65280
3418.42457	0.65296
3417.40415	0.65290
3416.38372	0.65296
3415.36330	0.65334
3414.34287	0.65377
3413.32245	0.65408
3412.30202	0.65419
3411.28160	0.65419
3410.26117	0.65425
3409.24075	0.65441
3408.22032	0.65458
3407.19990	0.65477
3406.17947	0.65491
3405.15904	0.65496
3404.13862	0.65505
3403.11819	0.65517
3402.09777	0.65525
3401.07734	0.65535
3400.05692	0.65558
3399.03649	0.65646
3398.01607	0.65650
3396.99564	0.65646
3395.97522	0.65669
3394.95479	0.65683
3393.93437	0.65671
3392.91394	0.65664
3391.89352	0.65680
3390.87309	0.65692
3389.85267	0.65686
3388.83224	0.65686
3387.81182	0.65705
3386.79139	0.65724
3385.77097	0.65737
3384.75054	0.65748
3383.73011	0.65757
3382.70969	0.65762
3381.68926	0.65774
3380.66884	0.65796
3379.64841	0.65817
3378.62799	0.65830
3377.60756	0.65843
3376.58714	0.65860
3375.56671	0.65876
3374.54629	0.65889
3373.52586	0.65902
3372.50544	0.65922
3371.48501	0.65949
3370.46459	0.65973
3369.44416	0.65992
3368.42374	0.66007
3367.40331	0.66011
3366.38289	0.66016
3365.36246	0.66040
3364.34203	0.66065
3363.32161	0.66074
3362.30118	0.66072
3361.28076	0.66080
3360.26033	0.66109
3359.23991	0.66135
3358.21948	0.66150
3357.19906	0.66161
3356.17863	0.66172
3355.15821	0.66184
3354.13778	0.66202
3353.11736	0.66225
3352.09693	0.66250
3351.07651	0.66278
3350.05608	0.66301
3349.03566	0.66316
3348.01523	0.66328
3346.99481	0.66339
3345.97438	0.66352
3344.95396	0.66363
3343.93353	0.66374
3342.91310	0.66389
3341.89268	0.66407
3340.87225	0.66425
3339.85183	0.66440
3338.83140	0.66456
3337.81098	0.66479
3336.79055	0.66492
3335.77013	0.66486
3334.74970	0.66480
3333.72928	0.66491
3332.70885	0.66513
3331.68843	0.66533
3330.66800	0.66553
3329.64758	0.66581
3328.62715	0.66619
3327.60673	0.66661
3326.58630	0.66687
3325.56588	0.66686
3324.54545	0.66682
3323.52503	0.66697
3322.50460	0.66721
3321.48417	0.66744
3320.46375	0.66767
3319.44332	0.66791
3318.42290	0.66813
3317.40247	0.66827
3316.38205	0.66844
3315.36162	0.66869
3314.34120	0.66899
3313.32077	0.66920
3312.30035	0.66938
3311.27992	0.66959
3310.25950	0.66973
3309.23907	0.66991
3308.21865	0.67020
3307.19822	0.67047
3306.17780	0.67067
3305.15737	0.67091
3304.13695	0.67116
3303.11652	0.67132
3302.09609	0.67139
3301.07567	0.67150
3300.05524	0.67170
3299.03482	0.67201
3298.01439	0.67238
3296.99397	0.67264
3295.97354	0.67279
3294.95312	0.67304
3293.93269	0.67339
3292.91227	0.67365
3291.89184	0.67374
3290.87142	0.67393
3289.85099	0.67439
3288.83057	0.67492
3287.81014	0.67530
3286.78972	0.67567
3285.76929	0.67615
3284.74887	0.67675
3283.72844	0.67727
3282.70802	0.67751
3281.68759	0.67764
3280.66716	0.67782
3279.64674	0.67807
3278.62631	0.67843
3277.60589	0.67899
3276.58546	0.67959
3275.56504	0.68007
3274.54461	0.68071
3273.52419	0.68171
3272.50376	0.68273
3271.48334	0.68301
3270.46291	0.68222
3269.44249	0.68118
3268.42206	0.68051
3267.40164	0.68022
3266.38121	0.68019
3265.36079	0.68037
3264.34036	0.68062
3263.31994	0.68081
3262.29951	0.68098
3261.27909	0.68121
3260.25866	0.68153
3259.23823	0.68198
3258.21781	0.68246
3257.19738	0.68264
3256.17696	0.68240
3255.15653	0.68199
3254.13611	0.68164
3253.11568	0.68154
3252.09526	0.68170
3251.07483	0.68184
3250.05441	0.68187
3249.03398	0.68198
3248.01356	0.68221
3246.99313	0.68237
3245.97271	0.68228
3244.95228	0.68211
3243.93186	0.68212
3242.91143	0.68224
3241.89101	0.68229
3240.87058	0.68243
3239.85015	0.68274
3238.82973	0.68301
3237.80930	0.68311
3236.78888	0.68299
3235.76845	0.68277
3234.74803	0.68254
3233.72760	0.68228
3232.70718	0.68202
3231.68675	0.68186
3230.66633	0.68182
3229.64590	0.68181
3228.62548	0.68174
3227.60505	0.68160
3226.58463	0.68147
3225.56420	0.68131
3224.54378	0.68107
3223.52335	0.68087
3222.50293	0.68088
3221.48250	0.68108
3220.46208	0.68136
3219.44165	0.68146
3218.42122	0.68133
3217.40080	0.68123
3216.38037	0.68122
3215.35995	0.68118
3214.33952	0.68112
3213.31910	0.68118
3212.29867	0.68138
3211.27825	0.68138
3210.25782	0.68121
3209.23740	0.68116
3208.21697	0.68136
3207.19655	0.68153
3206.17612	0.68149
3205.15570	0.68149
3204.13527	0.68169
3203.11485	0.68197
3202.09442	0.68218
3201.07400	0.68228
3200.05357	0.68234
3199.03315	0.68231
3198.01272	0.68220
3196.99229	0.68207
3195.97187	0.68184
3194.95144	0.68152
3193.93102	0.68134
3192.91059	0.68148
3191.89017	0.68177
3190.86974	0.68191
3189.84932	0.68187
3188.82889	0.68183
3187.80847	0.68175
3186.78804	0.68161
3185.76762	0.68144
3184.74719	0.68115
3183.72677	0.68078
3182.70634	0.68052
3181.68592	0.68045
3180.66549	0.68052
3179.64507	0.68050
3178.62464	0.68008
3177.60421	0.67944
3176.58379	0.67909
3175.56336	0.67891
3174.54294	0.67873
3173.52251	0.67863
3172.50209	0.67849
3171.48166	0.67818
3170.46124	0.67781
3169.44081	0.67755
3168.42039	0.67745
3167.39996	0.67744
3166.37954	0.67747
3165.35911	0.67752
3164.33869	0.67752
3163.31826	0.67730
3162.29784	0.67688
3161.27741	0.67644
3160.25699	0.67616
3159.23656	0.67598
3158.21614	0.67581
3157.19571	0.67563
3156.17528	0.67549
3155.15486	0.67533
3154.13443	0.67516
3153.11401	0.67505
3152.09358	0.67493
3151.07316	0.67473
3150.05273	0.67455
3149.03231	0.67451
3148.01188	0.67460
3146.99146	0.67473
3145.97103	0.67491
3144.95061	0.67509
3143.93018	0.67497
3142.90976	0.67440
3141.88933	0.67370
3140.86891	0.67318
3139.84848	0.67294
3138.82806	0.67290
3137.80763	0.67284
3136.78721	0.67255
3135.76678	0.67204
3134.74635	0.67148
3133.72593	0.67098
3132.70550	0.67056
3131.68508	0.67033
3130.66465	0.67011
3129.64423	0.66987
3128.62380	0.66975
3127.60338	0.66971
3126.58295	0.66954
3125.56253	0.66925
3124.54210	0.66911
3123.52168	0.66913
3122.50125	0.66907
3121.48083	0.66895
3120.46040	0.66888
3119.43998	0.66891
3118.41955	0.66899
3117.39913	0.66907
3116.37870	0.66914
3115.35828	0.66935
3114.33785	0.66975
3113.31742	0.67023
3112.29700	0.67082
3111.27657	0.67176
3110.25615	0.67329
3109.23572	0.67577
3108.21530	0.67865
3107.19487	0.67960
3106.17445	0.67721
3105.15402	0.67326
3104.13360	0.67012
3103.11317	0.66820
3102.09275	0.66691
3101.07232	0.66600
3100.05190	0.66551
3099.03147	0.66526
3098.01105	0.66495
3096.99062	0.66448
3095.97020	0.66399
3094.94977	0.66370
3093.92934	0.66359
3092.90892	0.66341
3091.88849	0.66311
3090.86807	0.66289
3089.84764	0.66276
3088.82722	0.66269
3087.80679	0.66255
3086.78637	0.66225
3085.76594	0.66186
3084.74552	0.66146
3083.72509	0.66111
3082.70467	0.66078
3081.68424	0.66043
3080.66382	0.66015
3079.64339	0.65992
3078.62297	0.65964
3077.60254	0.65931
3076.58212	0.65895
3075.56169	0.65867
3074.54127	0.65848
3073.52084	0.65831
3072.50041	0.65816
3071.47999	0.65805
3070.45956	0.65796
3069.43914	0.65785
3068.41871	0.65769
3067.39829	0.65746
3066.37786	0.65714
3065.35744	0.65676
3064.33701	0.65638
3063.31659	0.65619
3062.29616	0.65621
3061.27574	0.65613
3060.25531	0.65592
3059.23489	0.65579
3058.21446	0.65570
3057.19404	0.65552
3056.17361	0.65520
3055.15319	0.65488
3054.13276	0.65470
3053.11234	0.65452
3052.09191	0.65426
3051.07148	0.65405
3050.05106	0.65398
3049.03063	0.65387
3048.01021	0.65355
3046.98978	0.65319
3045.96936	0.65294
3044.94893	0.65275
3043.92851	0.65257
3042.90808	0.65242
3041.88766	0.65224
3040.86723	0.65203
3039.84681	0.65178
3038.82638	0.65151
3037.80596	0.65129
3036.78553	0.65116
3035.76511	0.65102
3034.74468	0.65076
3033.72426	0.65050
3032.70383	0.65031
3031.68340	0.64996
3030.66298	0.64952
3029.64255	0.64928
3028.62213	0.64909
3027.60170	0.64887
3026.58128	0.64871
3025.56085	0.64853
3024.54043	0.64830
3023.52000	0.64811
3022.49958	0.64792
3021.47915	0.64769
3020.45873	0.64747
3019.43830	0.64730
3018.41788	0.64715
3017.39745	0.64694
3016.37703	0.64670
3015.35660	0.64650
3014.33618	0.64637
3013.31575	0.64617
3012.29533	0.64575
3011.27490	0.64530
3010.25447	0.64502
3009.23405	0.64484
3008.21362	0.64469
3007.19320	0.64453
3006.17277	0.64437
3005.15235	0.64420
3004.13192	0.64388
3003.11150	0.64354
3002.09107	0.64331
3001.07065	0.64311
3000.05022	0.64286
2999.02980	0.64254
2998.00937	0.64238
2996.98895	0.64218
2995.96852	0.64203
2994.94810	0.64187
2993.92767	0.64162
2992.90725	0.64132
2991.88682	0.64102
2990.86640	0.64069
2989.84597	0.64046
2988.82554	0.64037
2987.80512	0.64021
2986.78469	0.63993
2985.76427	0.63967
2984.74384	0.63952
2983.72342	0.63943
2982.70299	0.63934
2981.68257	0.63925
2980.66214	0.63909
2979.64172	0.63888
2978.62129	0.63869
2977.60087	0.63848
2976.58044	0.63829
2975.56002	0.63822
2974.53959	0.63817
2973.51917	0.63806
2972.49874	0.63789
2971.47832	0.63774
2970.45789	0.63767
2969.43746	0.63753
2968.41704	0.63732
2967.39661	0.63716
2966.37619	0.63703
2965.35576	0.63686
2964.33534	0.63664
2963.31491	0.63643
2962.29449	0.63619
2961.27406	0.63587
2960.25364	0.63554
2959.23321	0.63532
2958.21279	0.63517
2957.19236	0.63499
2956.17194	0.63477
2955.15151	0.63456
2954.13109	0.63431
2953.11066	0.63401
2952.09024	0.63367
2951.06981	0.63339
2950.04939	0.63321
2949.02896	0.63303
2948.00853	0.63279
2946.98811	0.63258
2945.96768	0.63242
2944.94726	0.63232
2943.92683	0.63221
2942.90641	0.63203
2941.88598	0.63187
2940.86556	0.63171
2939.84513	0.63152
2938.82471	0.63136
2937.80428	0.63120
2936.78386	0.63103
2935.76343	0.63091
2934.74301	0.63087
2933.72258	0.63082
2932.70216	0.63073
2931.68173	0.63061
2930.66131	0.63055
2929.64088	0.63049
2928.62046	0.63034
2927.60003	0.63013
2926.57960	0.62991
2925.55918	0.62966
2924.53875	0.62938
2923.51833	0.62908
2922.49790	0.62875
2921.47748	0.62848
2920.45705	0.62831
2919.43663	0.62812
2918.41620	0.62789
2917.39578	0.62767
2916.37535	0.62737
2915.35493	0.62698
2914.33450	0.62656
2913.31408	0.62614
2912.29365	0.62568
2911.27323	0.62520
2910.25280	0.62478
2909.23238	0.62444
2908.21195	0.62403
2907.19152	0.62355
2906.17110	0.62318
2905.15067	0.62290
2904.13025	0.62255
2903.10982	0.62217
2902.08940	0.62182
2901.06897	0.62150
2900.04855	0.62115
2899.02812	0.62084
2898.00770	0.62059
2896.98727	0.62036
2895.96685	0.62010
2894.94642	0.61979
2893.92600	0.61943
2892.90557	0.61910
2891.88515	0.61880
2890.86472	0.61847
2889.84430	0.61813
2888.82387	0.61783
2887.80345	0.61751
2886.78302	0.61723
2885.76259	0.61704
2884.74217	0.61679
2883.72174	0.61646
2882.70132	0.61614
2881.68089	0.61582
2880.66047	0.61554
2879.64004	0.61526
2878.61962	0.61498
2877.59919	0.61477
2876.57877	0.61464
2875.55834	0.61451
2874.53792	0.61429
2873.51749	0.61403
2872.49707	0.61381
2871.47664	0.61360
2870.45622	0.61333
2869.43579	0.61304
2868.41537	0.61280
2867.39494	0.61257
2866.37452	0.61233
2865.35409	0.61212
2864.33366	0.61192
2863.31324	0.61169
2862.29281	0.61145
2861.27239	0.61129
2860.25196	0.61118
2859.23154	0.61104
2858.21111	0.61088
2857.19069	0.61075
2856.17026	0.61064
2855.14984	0.61048
2854.12941	0.61031
2853.10899	0.61013
2852.08856	0.60997
2851.06814	0.60979
2850.04771	0.60954
2849.02729	0.60925
2848.00686	0.60890
2846.98644	0.60845
2845.96601	0.60790
2844.94558	0.60736
2843.92516	0.60692
2842.90473	0.60656
2841.88431	0.60620
2840.86388	0.60589
2839.84346	0.60564
2838.82303	0.60538
2837.80261	0.60506
2836.78218	0.60473
2835.76176	0.60448
2834.74133	0.60423
2833.72091	0.60391
2832.70048	0.60365
2831.68006	0.60344
2830.65963	0.60318
2829.63921	0.60289
2828.61878	0.60264
2827.59836	0.60245
2826.57793	0.60226
2825.55751	0.60204
2824.53708	0.60176
2823.51665	0.60144
2822.49623	0.60116
2821.47580	0.60094
2820.45538	0.60076
2819.43495	0.60057
2818.41453	0.60033
2817.39410	0.60007
2816.37368	0.59985
2815.35325	0.59966
2814.33283	0.59947
2813.31240	0.59926
2812.29198	0.59912
2811.27155	0.59906
2810.25113	0.59891
2809.23070	0.59865
2808.21028	0.59835
2807.18985	0.59806
2806.16943	0.59781
2805.14900	0.59758
2804.12858	0.59737
2803.10815	0.59717
2802.08772	0.59701
2801.06730	0.59686
2800.04687	0.59670
2799.02645	0.59654
2798.00602	0.59637
2796.98560	0.59617
2795.96517	0.59597
2794.94475	0.59579
2793.92432	0.59561
2792.90390	0.59546
2791.88347	0.59537
2790.86305	0.59527
2789.84262	0.59510
2788.82220	0.59490
2787.80177	0.59477
2786.78135	0.59469
2785.76092	0.59456
2784.74050	0.59432
2783.72007	0.59401
2782.69964	0.59369
2781.67922	0.59340
2780.65879	0.59315
2779.63837	0.59295
2778.61794	0.59282
2777.59752	0.59272
2776.57709	0.59262
2775.55667	0.59249
2774.53624	0.59233
2773.51582	0.59216
2772.49539	0.59197
2771.47497	0.59174
2770.45454	0.59153
2769.43412	0.59134
2768.41369	0.59115
2767.39327	0.59099
2766.37284	0.59083
2765.35242	0.59069
2764.33199	0.59055
2763.31157	0.59038
2762.29114	0.59023
2761.27071	0.59012
2760.25029	0.58994
2759.22986	0.58972
2758.20944	0.58956
2757.18901	0.58941
2756.16859	0.58922
2755.14816	0.58901
2754.12774	0.58883
2753.10731	0.58872
2752.08689	0.58862
2751.06646	0.58852
2750.04604	0.58843
2749.02561	0.58830
2748.00519	0.58812
2746.98476	0.58793
2745.96434	0.58775
2744.94391	0.58762
2743.92349	0.58752
2742.90306	0.58739
2741.88264	0.58721
2740.86221	0.58703
2739.84178	0.58686
2738.82136	0.58674
2737.80093	0.58665
2736.78051	0.58659
2735.76008	0.58651
2734.73966	0.58637
2733.71923	0.58621
2732.69881	0.58607
2731.67838	0.58596
2730.65796	0.58588
2729.63753	0.58578
2728.61711	0.58567
2727.59668	0.58560
2726.57626	0.58553
2725.55583	0.58542
2724.53541	0.58528
2723.51498	0.58517
2722.49456	0.58508
2721.47413	0.58496
2720.45370	0.58483
2719.43328	0.58469
2718.41285	0.58456
2717.39243	0.58445
2716.37200	0.58436
2715.35158	0.58428
2714.33115	0.58421
2713.31073	0.58419
2712.29030	0.58415
2711.26988	0.58406
2710.24945	0.58397
2709.22903	0.58387
2708.20860	0.58378
2707.18818	0.58371
2706.16775	0.58366
2705.14733	0.58364
2704.12690	0.58362
2703.10648	0.58354
2702.08605	0.58342
2701.06563	0.58332
2700.04520	0.58327
2699.02477	0.58324
2698.00435	0.58320
2696.98392	0.58316
2695.96350	0.58310
2694.94307	0.58305
2693.92265	0.58304
2692.90222	0.58307
2691.88180	0.58303
2690.86137	0.58294
2689.84095	0.58291
2688.82052	0.58291
2687.80010	0.58290
2686.77967	0.58286
2685.75925	0.58281
2684.73882	0.58275
2683.71840	0.58274
2682.69797	0.58281
2681.67755	0.58290
2680.65712	0.58297
2679.63670	0.58301
2678.61627	0.58299
2677.59584	0.58298
2676.57542	0.58295
2675.55499	0.58292
2674.53457	0.58296
2673.51414	0.58305
2672.49372	0.58313
2671.47329	0.58321
2670.45287	0.58331
2669.43244	0.58342
2668.41202	0.58362
2667.39159	0.58389
2666.37117	0.58417
2665.35074	0.58451
2664.33032	0.58501
2663.30989	0.58570
2662.28947	0.58661
2661.26904	0.58776
2660.24862	0.58916
2659.22819	0.59077
2658.20776	0.59259
2657.18734	0.59454
2656.16691	0.59663
2655.14649	0.59886
2654.12606	0.60118
2653.10564	0.60354
2652.08521	0.60599
2651.06479	0.60851
2650.04436	0.61107
2649.02394	0.61368
2648.00351	0.61633
2646.98309	0.61896
2645.96266	0.62159
2644.94224	0.62426
2643.92181	0.62694
2642.90139	0.62960
2641.88096	0.63229
2640.86054	0.63498
2639.84011	0.63764
2638.81969	0.64028
2637.79926	0.64289
2636.77883	0.64545
2635.75841	0.64803
2634.73798	0.65057
2633.71756	0.65306
2632.69713	0.65556
2631.67671	0.65812
2630.65628	0.66064
2629.63586	0.66311
2628.61543	0.66551
2627.59501	0.66787
2626.57458	0.67019
2625.55416	0.67250
2624.53373	0.67479
2623.51331	0.67708
2622.49288	0.67931
2621.47246	0.68149
2620.45203	0.68366
2619.43161	0.68580
2618.41118	0.68794
2617.39076	0.69001
2616.37033	0.69201
2615.34990	0.69399
2614.32948	0.69593
2613.30905	0.69786
2612.28863	0.69976
2611.26820	0.70163
2610.24778	0.70350
2609.22735	0.70529
2608.20693	0.70700
2607.18650	0.70871
2606.16608	0.71043
2605.14565	0.71209
2604.12523	0.71368
2603.10480	0.71525
2602.08438	0.71685
2601.06395	0.71848
2600.04353	0.72006
2599.02310	0.72157
2598.00268	0.72303
2596.98225	0.72446
2595.96182	0.72585
2594.94140	0.72716
2593.92097	0.72846
2592.90055	0.72981
2591.88012	0.73112
2590.85970	0.73235
2589.83927	0.73354
2588.81885	0.73474
2587.79842	0.73592
2586.77800	0.73704
2585.75757	0.73812
2584.73715	0.73922
2583.71672	0.74033
2582.69630	0.74145
2581.67587	0.74252
2580.65545	0.74354
2579.63502	0.74450
2578.61460	0.74543
2577.59417	0.74637
2576.57375	0.74728
2575.55332	0.74813
2574.53289	0.74898
2573.51247	0.74984
2572.49204	0.75064
2571.47162	0.75140
2570.45119	0.75219
2569.43077	0.75298
2568.41034	0.75368
2567.38992	0.75438
2566.36949	0.75514
2565.34907	0.75589
2564.32864	0.75661
2563.30822	0.75732
2562.28779	0.75797
2561.26737	0.75856
2560.24694	0.75911
2559.22652	0.75968
2558.20609	0.76029
2557.18567	0.76088
2556.16524	0.76136
2555.14482	0.76182
2554.12439	0.76233
2553.10396	0.76285
2552.08354	0.76333
2551.06311	0.76381
2550.04269	0.76426
2549.02226	0.76467
2548.00184	0.76508
2546.98141	0.76550
2545.96099	0.76590
2544.94056	0.76629
2543.92014	0.76664
2542.89971	0.76694
2541.87929	0.76725
2540.85886	0.76760
2539.83844	0.76794
2538.81801	0.76824
2537.79759	0.76849
2536.77716	0.76869
2535.75674	0.76886
2534.73631	0.76908
2533.71588	0.76938
2532.69546	0.76971
2531.67503	0.76996
2530.65461	0.77013
2529.63418	0.77032
2528.61376	0.77051
2527.59333	0.77065
2526.57291	0.77079
2525.55248	0.77096
2524.53206	0.77110
2523.51163	0.77122
2522.49121	0.77137
2521.47078	0.77149
2520.45036	0.77155
2519.42993	0.77165
2518.40951	0.77178
2517.38908	0.77190
2516.36866	0.77198
2515.34823	0.77200
2514.32781	0.77202
2513.30738	0.77207
2512.28695	0.77207
2511.26653	0.77202
2510.24610	0.77201
2509.22568	0.77201
2508.20525	0.77203
2507.18483	0.77205
2506.16440	0.77201
2505.14398	0.77193
2504.12355	0.77189
2503.10313	0.77190
2502.08270	0.77191
2501.06228	0.77191
2500.04185	0.77189
2499.02143	0.77184
2498.00100	0.77178
2496.98058	0.77175
2495.96015	0.77172
2494.93973	0.77168
2493.91930	0.77165
2492.89888	0.77161
2491.87845	0.77159
2490.85802	0.77164
2489.83760	0.77165
2488.81717	0.77159
2487.79675	0.77156
2486.77632	0.77154
2485.75590	0.77150
2484.73547	0.77147
2483.71505	0.77142
2482.69462	0.77133
2481.67420	0.77126
2480.65377	0.77118
2479.63335	0.77104
2478.61292	0.77094
2477.59250	0.77093
2476.57207	0.77090
2475.55165	0.77085
2474.53122	0.77086
2473.51080	0.77093
2472.49037	0.77095
2471.46994	0.77095
2470.44952	0.77106
2469.42909	0.77126
2468.40867	0.77148
2467.38824	0.77170
2466.36782	0.77192
2465.34739	0.77221
2464.32697	0.77260
2463.30654	0.77309
2462.28612	0.77363
2461.26569	0.77424
2460.24527	0.77494
2459.22484	0.77572
2458.20442	0.77657
2457.18399	0.77750
2456.16357	0.77853
2455.14314	0.77962
2454.12272	0.78074
2453.10229	0.78191
2452.08187	0.78311
2451.06144	0.78434
2450.04101	0.78556
2449.02059	0.78672
2448.00016	0.78781
2446.97974	0.78889
2445.95931	0.78994
2444.93889	0.79095
2443.91846	0.79193
2442.89804	0.79290
2441.87761	0.79381
2440.85719	0.79465
2439.83676	0.79546
2438.81634	0.79627
2437.79591	0.79706
2436.77549	0.79787
2435.75506	0.79863
2434.73464	0.79931
2433.71421	0.79994
2432.69379	0.80051
2431.67336	0.80104
2430.65294	0.80156
2429.63251	0.80207
2428.61208	0.80260
2427.59166	0.80314
2426.57123	0.80362
2425.55081	0.80404
2424.53038	0.80446
2423.50996	0.80496
2422.48953	0.80552
2421.46911	0.80612
2420.44868	0.80681
2419.42826	0.80765
2418.40783	0.80873
2417.38741	0.81004
2416.36698	0.81156
2415.34656	0.81334
2414.32613	0.81544
2413.30571	0.81799
2412.28528	0.82102
2411.26486	0.82452
2410.24443	0.82846
2409.22401	0.83278
2408.20358	0.83736
2407.18315	0.84216
2406.16273	0.84710
2405.14230	0.85208
2404.12188	0.85711
2403.10145	0.86221
2402.08103	0.86742
2401.06060	0.87269
2400.04018	0.87799
2399.01975	0.88318
2397.99933	0.88842
2396.97890	0.89370
2395.95848	0.89888
2394.93805	0.90380
2393.91763	0.90834
2392.89720	0.91244
2391.87678	0.91618
2390.85635	0.91967
2389.83593	0.92295
2388.81550	0.92603
2387.79507	0.92896
2386.77465	0.93205
2385.75422	0.93571
2384.73380	0.94036
2383.71337	0.94638
2382.69295	0.95400
2381.67252	0.96326
2380.65210	0.97398
2379.63167	0.98583
2378.61125	0.99846
2377.59082	1.01165
2376.57040	1.02518
2375.54997	1.03876
2374.52955	1.05180
2373.50912	1.06362
2372.48870	1.07384
2371.46827	1.08263
2370.44785	1.09050
2369.42742	1.09767
2368.40700	1.10362
2367.38657	1.10767
2366.36614	1.10981
2365.34572	1.11069
2364.32529	1.11056
2363.30487	1.10870
2362.28444	1.10447
2361.26402	1.09839
2360.24359	1.09191
2359.22317	1.08550
2358.20274	1.07757
2357.18232	1.06536
2356.16189	1.04623
2355.14147	1.01814
2354.12104	0.97974
2353.10062	0.93108
2352.08019	0.87525
2351.05977	0.82046
2350.03934	0.77832
2349.01892	0.76018
2347.99849	0.76969
2346.97807	0.79850
2345.95764	0.83156
2344.93721	0.85593
2343.91679	0.86635
2342.89636	0.86445
2341.87594	0.85427
2340.85551	0.83910
2339.83509	0.82116
2338.81466	0.80274
2337.79424	0.78622
2336.77381	0.77290
2335.75339	0.76267
2334.73296	0.75529
2333.71254	0.75040
2332.69211	0.74702
2331.67169	0.74374
2330.65126	0.73947
2329.63084	0.73381
2328.61041	0.72715
2327.58999	0.72063
2326.56956	0.71591
2325.54913	0.71460
2324.52871	0.71731
2323.50828	0.72319
2322.48786	0.73023
2321.46743	0.73617
2320.44701	0.73938
2319.42658	0.73940
2318.40616	0.73719
2317.38573	0.73477
2316.36531	0.73414
2315.34488	0.73602
2314.32446	0.73981
2313.30403	0.74430
2312.28361	0.74842
2311.26318	0.75167
2310.24276	0.75406
2309.22233	0.75587
2308.20191	0.75741
2307.18148	0.75890
2306.16106	0.76047
2305.14063	0.76238
2304.12020	0.76496
2303.09978	0.76837
2302.07935	0.77233
2301.05893	0.77611
2300.03850	0.77898
2299.01808	0.78066
2297.99765	0.78150
2296.97723	0.78209
2295.95680	0.78290
2294.93638	0.78412
2293.91595	0.78573
2292.89553	0.78764
2291.87510	0.78984
2290.85468	0.79229
2289.83425	0.79491
2288.81383	0.79761
2287.79340	0.80031
2286.77298	0.80302
2285.75255	0.80576
2284.73213	0.80868
2283.71170	0.81192
2282.69127	0.81560
2281.67085	0.81964
2280.65042	0.82382
2279.63000	0.82790
2278.60957	0.83173
2277.58915	0.83525
2276.56872	0.83840
2275.54830	0.84126
2274.52787	0.84392
2273.50745	0.84640
2272.48702	0.84867
2271.46660	0.85073
2270.44617	0.85265
2269.42575	0.85452
2268.40532	0.85639
2267.38490	0.85822
2266.36447	0.85997
2265.34405	0.86159
2264.32362	0.86303
2263.30319	0.86430
2262.28277	0.86550
2261.26234	0.86677
2260.24192	0.86811
2259.22149	0.86946
2258.20107	0.87080
2257.18064	0.87219
2256.16022	0.87364
2255.13979	0.87511
2254.11937	0.87645
2253.09894	0.87751
2252.07852	0.87832
2251.05809	0.87919
2250.03767	0.88059
2249.01724	0.88135
2247.99682	0.88245
2246.97639	0.88362
2245.95597	0.88482
2244.93554	0.88601
2243.91512	0.88723
2242.89469	0.88850
2241.87426	0.88980
2240.85384	0.89105
2239.83341	0.89226
2238.81299	0.89353
2237.79256	0.89485
2236.77214	0.89610
2235.75171	0.89733
2234.73129	0.89859
2233.71086	0.89979
2232.69044	0.90095
2231.67001	0.90211
2230.64959	0.90329
2229.62916	0.90445
2228.60874	0.90558
2227.58831	0.90665
2226.56789	0.90767
2225.54746	0.90869
2224.52704	0.90975
2223.50661	0.91081
2222.48619	0.91181
2221.46576	0.91280
2220.44533	0.91380
2219.42491	0.91473
2218.40448	0.91558
2217.38406	0.91642
2216.36363	0.91729
2215.34321	0.91811
2214.32278	0.91888
2213.30236	0.91971
2212.28193	0.92057
2211.26151	0.92133
2210.24108	0.92205
2209.22066	0.92283
2208.20023	0.92364
2207.17981	0.92443
2206.15938	0.92519
2205.13896	0.92590
2204.11853	0.92662
2203.09811	0.92743
2202.07768	0.92825
2201.05725	0.92906
2200.03683	0.92988
2199.01640	0.93069
2197.99598	0.93151
2196.97555	0.93237
2195.95513	0.93323
2194.93470	0.93413
2193.91428	0.93506
2192.89385	0.93601
2191.87343	0.93704
2190.85300	0.93812
2189.83258	0.93918
2188.81215	0.94024
2187.79173	0.94139
2186.77130	0.94262
2185.75088	0.94383
2184.73045	0.94503
2183.71003	0.94622
2182.68960	0.94730
2181.66918	0.94817
2180.64875	0.94872
2179.62832	0.94894
2178.60790	0.94910
2177.58747	0.94944
2176.56705	0.95007
2175.54662	0.95074
2174.52620	0.95114
2173.50577	0.95126
2172.48535	0.95138
2171.46492	0.95171
2170.44450	0.95235
2169.42407	0.95324
2168.40365	0.95441
2167.38322	0.95592
2166.36280	0.95775
2165.34237	0.95978
2164.32195	0.96184
2163.30152	0.96378
2162.28110	0.96568
2161.26067	0.96769
2160.24025	0.96985
2159.21982	0.97169
2158.19939	0.97214
2157.17897	0.97055
2156.15854	0.96756
2155.13812	0.96420
2154.11769	0.96098
2153.09727	0.95808
2152.07684	0.95546
2151.05642	0.95309
2150.03599	0.95096
2149.01557	0.94900
2147.99514	0.94706
2146.97472	0.94513
2145.95429	0.94319
2144.93387	0.94105
2143.91344	0.93871
2142.89302	0.93637
2141.87259	0.93411
2140.85217	0.93192
2139.83174	0.92977
2138.81131	0.92756
2137.79089	0.92541
2136.77046	0.92332
2135.75004	0.92097
2134.72961	0.91817
2133.70919	0.91495
2132.68876	0.91125
2131.66834	0.90723
2130.64791	0.90331
2129.62749	0.89971
2128.60706	0.89638
2127.58664	0.89334
2126.56621	0.89063
2125.54579	0.88819
2124.52536	0.88598
2123.50494	0.88403
2122.48451	0.88232
2121.46409	0.88082
2120.44366	0.87959
2119.42324	0.87858
2118.40281	0.87768
2117.38238	0.87697
2116.36196	0.87663
2115.34153	0.87656
2114.32111	0.87655
2113.30068	0.87675
2112.28026	0.87730
2111.25983	0.87795
2110.23941	0.87851
2109.21898	0.87903
2108.19856	0.87960
2107.17813	0.88024
2106.15771	0.88081
2105.13728	0.88130
2104.11686	0.88182
2103.09643	0.88236
2102.07601	0.88291
2101.05558	0.88350
2100.03516	0.88413
2099.01473	0.88471
2097.99431	0.88526
2096.97388	0.88575
2095.95345	0.88604
2094.93303	0.88598
2093.91260	0.88543
2092.89218	0.88450
2091.87175	0.88352
2090.85133	0.88276
2089.83090	0.88234
2088.81048	0.88242
2087.79005	0.88291
2086.76963	0.88356
2085.74920	0.88437
2084.72878	0.88534
2083.70835	0.88640
2082.68793	0.88750
2081.66750	0.88867
2080.64708	0.88999
2079.62665	0.89151
2078.60623	0.89311
2077.58580	0.89465
2076.56537	0.89618
2075.54495	0.89780
2074.52452	0.89944
2073.50410	0.90093
2072.48367	0.90231
2071.46325	0.90365
2070.44282	0.90498
2069.42240	0.90633
2068.40197	0.90777
2067.38155	0.90909
2066.36112	0.90995
2065.34070	0.91051
2064.32027	0.91143
2063.29985	0.91300
2062.27942	0.91460
2061.25900	0.91584
2060.23857	0.91686
2059.21815	0.91786
2058.19772	0.91899
2057.17730	0.92026
2056.15687	0.92177
2055.13644	0.92361
2054.11602	0.92556
2053.09559	0.92728
2052.07517	0.92905
2051.05474	0.93189
2050.03432	0.93603
2049.01389	0.94031
2047.99347	0.94363
2046.97304	0.94593
2045.95262	0.94772
2044.93219	0.94944
2043.91177	0.95105
2042.89134	0.95219
2041.87092	0.95308
2040.85049	0.95428
2039.83007	0.95611
2038.80964	0.95812
2037.78922	0.95981
2036.76879	0.96138
2035.74837	0.96301
2034.72794	0.96456
2033.70751	0.96575
2032.68709	0.96648
2031.66666	0.96687
2030.64624	0.96706
2029.62581	0.96714
2028.60539	0.96716
2027.58496	0.96711
2026.56454	0.96698
2025.54411	0.96685
2024.52369	0.96682
2023.50326	0.96681
2022.48284	0.96666
2021.46241	0.96636
2020.44199	0.96610
2019.42156	0.96584
2018.40114	0.96515
2017.38071	0.96416
2016.36029	0.96371
2015.33986	0.96410
2014.31943	0.96453
2013.29901	0.96432
2012.27858	0.96397
2011.25816	0.96381
2010.23773	0.96372
2009.21731	0.96364
2008.19688	0.96350
2007.17646	0.96300
2006.15603	0.96185
2005.13561	0.96009
2004.11518	0.95810
2003.09476	0.95623
2002.07433	0.95462
2001.05391	0.95320
2000.03348	0.95195
1999.01306	0.95090
1997.99263	0.95014
1996.97221	0.94973
1995.95178	0.94984
1994.93136	0.95037
1993.91093	0.95032
1992.89050	0.94885
1991.87008	0.94751
1990.84965	0.94802
1989.82923	0.94966
1988.80880	0.95033
1987.78838	0.95045
1986.76795	0.95146
1985.74753	0.95276
1984.72710	0.95376
1983.70668	0.95481
1982.68625	0.95620
1981.66583	0.95789
1980.64540	0.95992
1979.62498	0.96241
1978.60455	0.96518
1977.58413	0.96742
1976.56370	0.96834
1975.54328	0.96803
1974.52285	0.96713
1973.50243	0.96605
1972.48200	0.96487
1971.46157	0.96384
1970.44115	0.96309
1969.42072	0.96208
1968.40030	0.96000
1967.37987	0.95715
1966.35945	0.95529
1965.33902	0.95490
1964.31860	0.95467
1963.29817	0.95366
1962.27775	0.95215
1961.25732	0.95045
1960.23690	0.94870
1959.21647	0.94678
1958.19605	0.94447
1957.17562	0.94176
1956.15520	0.93889
1955.13477	0.93617
1954.11435	0.93399
1953.09392	0.93238
1952.07349	0.93080
1951.05307	0.92909
1950.03264	0.92744
1949.01222	0.92581
1947.99179	0.92393
1946.97137	0.92186
1945.95094	0.92034
1944.93052	0.91913
1943.91009	0.91658
1942.88967	0.91202
1941.86924	0.90859
1940.84882	0.90830
1939.82839	0.90852
1938.80797	0.90712
1937.78754	0.90510
1936.76712	0.90321
1935.74669	0.90129
1934.72627	0.89924
1933.70584	0.89703
1932.68542	0.89482
1931.66499	0.89284
1930.64456	0.89100
1929.62414	0.88904
1928.60371	0.88689
1927.58329	0.88480
1926.56286	0.88328
1925.54244	0.88197
1924.52201	0.87934
1923.50159	0.87467
1922.48116	0.87046
1921.46074	0.87021
1920.44031	0.87172
1919.41989	0.87013
1918.39946	0.86508
1917.37904	0.86146
1916.35861	0.86171
1915.33819	0.86270
1914.31776	0.86195
1913.29734	0.86082
1912.27691	0.85969
1911.25649	0.85779
1910.23606	0.85501
1909.21563	0.85236
1908.19521	0.85092
1907.17478	0.85015
1906.15436	0.84944
1905.13393	0.84845
1904.11351	0.84698
1903.09308	0.84549
1902.07266	0.84415
1901.05223	0.84276
1900.03181	0.84138
1899.01138	0.84021
1897.99096	0.83920
1896.97053	0.83766
1895.95011	0.83507
1894.92968	0.83216
1893.90926	0.83095
1892.88883	0.83178
1891.86841	0.83185
1890.84798	0.82916
1889.82755	0.82426
1888.80713	0.82079
1887.78670	0.82134
1886.76628	0.82228
1885.74585	0.82118
1884.72543	0.81916
1883.70500	0.81747
1882.68458	0.81639
1881.66415	0.81532
1880.64373	0.81384
1879.62330	0.81214
1878.60288	0.81061
1877.58245	0.80934
1876.56203	0.80802
1875.54160	0.80653
1874.52118	0.80520
1873.50075	0.80463
1872.48033	0.80517
1871.45990	0.80518
1870.43948	0.80202
1869.41905	0.79532
1868.39862	0.78919
1867.37820	0.78749
1866.35777	0.78865
1865.33735	0.79002
1864.31692	0.79066
1863.29650	0.79014
1862.27607	0.78873
1861.25565	0.78712
1860.23522	0.78568
1859.21480	0.78426
1858.19437	0.78269
1857.17395	0.78129
1856.15352	0.78011
1855.13310	0.77886
1854.11267	0.77749
1853.09225	0.77613
1852.07182	0.77495
1851.05140	0.77389
1850.03097	0.77240
1849.01055	0.77032
1847.99012	0.76905
1846.96969	0.76955
1845.94927	0.76867
1844.92884	0.76214
1843.90842	0.75325
1842.88799	0.75090
1841.86757	0.75404
1840.84714	0.75628
1839.82672	0.75604
1838.80629	0.75424
1837.78587	0.75141
1836.76544	0.74869
1835.74502	0.74714
1834.72459	0.74659
1833.70417	0.74670
1832.68374	0.74700
1831.66332	0.74489
1830.64289	0.73834
1829.62247	0.73101
1828.60204	0.72971
1827.58161	0.73329
1826.56119	0.73399
1825.54076	0.72983
1824.52034	0.72552
1823.49991	0.72486
1822.47949	0.72586
1821.45906	0.72613
1820.43864	0.72554
1819.41821	0.72401
1818.39779	0.72107
1817.37736	0.71690
1816.35694	0.71244
1815.33651	0.70858
1814.31609	0.70530
1813.29566	0.70186
1812.27524	0.69746
1811.25481	0.69246
1810.23439	0.68848
1809.21396	0.68663
1808.19354	0.68593
1807.17311	0.68513
1806.15268	0.68448
1805.13226	0.68423
1804.11183	0.68376
1803.09141	0.68224
1802.07098	0.67928
1801.05056	0.67549
1800.03013	0.67224
1799.00971	0.67076
1797.98928	0.67126
1796.96886	0.67250
1795.94843	0.67352
1794.92801	0.67372
1793.90758	0.67134
1792.88716	0.66540
1791.86673	0.65932
1790.84631	0.65751
1789.82588	0.65993
1788.80546	0.66359
1787.78503	0.66608
1786.76461	0.66641
1785.74418	0.66492
1784.72375	0.66305
1783.70333	0.66234
1782.68290	0.66221
1781.66248	0.66075
1780.64205	0.65820
1779.62163	0.65693
1778.60120	0.65795
1777.58078	0.65987
1776.56035	0.66138
1775.53993	0.66199
1774.51950	0.66060
1773.49908	0.65556
1772.47865	0.64821
1771.45823	0.64399
1770.43780	0.64559
1769.41738	0.64874
1768.39695	0.64941
1767.37653	0.64916
1766.35610	0.65104
1765.33567	0.65444
1764.31525	0.65635
1763.29482	0.65476
1762.27440	0.65064
1761.25397	0.64791
1760.23355	0.64940
1759.21312	0.65239
1758.19270	0.65272
1757.17227	0.65075
1756.15185	0.65007
1755.13142	0.65305
1754.11100	0.65764
1753.09057	0.65969
1752.07015	0.65740
1751.04972	0.65257
1750.02930	0.64875
1749.00887	0.64717
1747.98845	0.64716
1746.96802	0.64916
1745.94760	0.65246
1744.92717	0.65497
1743.90674	0.65613
1742.88632	0.65711
1741.86589	0.65794
1740.84547	0.65678
1739.82504	0.65433
1738.80462	0.65548
1737.78419	0.66215
1736.76377	0.66836
1735.74334	0.66713
1734.72292	0.65761
1733.70249	0.64783
1732.68207	0.64713
1731.66164	0.65255
1730.64122	0.65640
1729.62079	0.65733
1728.60037	0.65868
1727.57994	0.66142
1726.55952	0.66363
1725.53909	0.66416
1724.51867	0.66345
1723.49824	0.66302
1722.47781	0.66489
1721.45739	0.66899
1720.43696	0.67164
1719.41654	0.66848
1718.39611	0.65964
1717.37569	0.65116
1716.35526	0.64796
1715.33484	0.64835
1714.31441	0.65009
1713.29399	0.65367
1712.27356	0.65796
1711.25314	0.66065
1710.23271	0.66174
1709.21229	0.66251
1708.19186	0.66242
1707.17144	0.65948
1706.15101	0.65469
1705.13059	0.65282
1704.11016	0.65698
1703.08974	0.66361
1702.06931	0.66428
1701.04888	0.65493
1700.02846	0.64346
1699.00803	0.64241
1697.98761	0.64790
1696.96718	0.64706
1695.94676	0.63958
1694.92633	0.63610
1693.90591	0.64126
1692.88548	0.64842
1691.86506	0.65149
1690.84463	0.65034
1689.82421	0.64809
1688.80378	0.64845
1687.78336	0.65219
1686.76293	0.65460
1685.74251	0.64869
1684.72208	0.63366
1683.70166	0.62068
1682.68123	0.62114
1681.66080	0.62908
1680.64038	0.63506
1679.61995	0.63818
1678.59953	0.64148
1677.57910	0.64335
1676.55868	0.64002
1675.53825	0.63300
1674.51783	0.62945
1673.49740	0.63265
1672.47698	0.63651
1671.45655	0.63513
1670.43613	0.62861
1669.41570	0.62115
1668.39528	0.61838
1667.37485	0.62276
1666.35443	0.63004
1665.33400	0.63426
1664.31358	0.63264
1663.29315	0.62652
1662.27273	0.62086
1661.25230	0.61985
1660.23187	0.62264
1659.21145	0.62644
1658.19102	0.63087
1657.17060	0.63615
1656.15017	0.63944
1655.12975	0.63443
1654.10932	0.61738
1653.08890	0.59725
1652.06847	0.59251
1651.04805	0.60552
1650.02762	0.62050
1649.00720	0.62480
1647.98677	0.61718
1646.96635	0.60527
1645.94592	0.59857
1644.92550	0.60099
1643.90507	0.60811
1642.88465	0.61351
1641.86422	0.61567
1640.84380	0.61690
1639.82337	0.61870
1638.80294	0.61969
1637.78252	0.61643
1636.76209	0.60683
1635.74167	0.59474
1634.72124	0.58902
1633.70082	0.59384
1632.68039	0.60260
1631.65997	0.60833
1630.63954	0.60980
1629.61912	0.60796
1628.59869	0.60429
1627.57827	0.60181
1626.55784	0.60258
1625.53742	0.60365
1624.51699	0.60029
1623.49657	0.59357
1622.47614	0.59027
1621.45572	0.59361
1620.43529	0.59971
1619.41486	0.60296
1618.39444	0.59962
1617.37401	0.59020
1616.35359	0.58121
1615.33316	0.58001
1614.31274	0.58499
1613.29231	0.58959
1612.27189	0.59107
1611.25146	0.59009
1610.23104	0.58770
1609.21061	0.58498
1608.19019	0.58306
1607.16976	0.58228
1606.14934	0.58217
1605.12891	0.58203
1604.10849	0.58118
1603.08806	0.57957
1602.06764	0.57804
1601.04721	0.57714
1600.02679	0.57678
1599.00636	0.57656
1597.98593	0.57599
1596.96551	0.57473
1595.94508	0.57288
1594.92466	0.57098
1593.90423	0.56969
1592.88381	0.56917
1591.86338	0.56879
1590.84296	0.56799
1589.82253	0.56694
1588.80211	0.56603
1587.78168	0.56538
1586.76126	0.56480
1585.74083	0.56411
1584.72041	0.56328
1583.69998	0.56237
1582.67956	0.56162
1581.65913	0.56164
1580.63871	0.56313
1579.61828	0.56547
1578.59786	0.56549
1577.57743	0.55936
1576.55700	0.54838
1575.53658	0.54114
1574.51615	0.54449
1573.49573	0.55366
1572.47530	0.56018
1571.45488	0.55966
1570.43445	0.55246
1569.41403	0.54434
1568.39360	0.54291
1567.37318	0.54735
1566.35275	0.55060
1565.33233	0.55046
1564.31190	0.55168
1563.29148	0.55808
1562.27105	0.56539
1561.25063	0.56429
1560.23020	0.54872
1559.20978	0.52538
1558.18935	0.51361
1557.16892	0.52150
1556.14850	0.53575
1555.12807	0.54290
1554.10765	0.54321
1553.08722	0.54424
1552.06680	0.54681
1551.04637	0.54644
1550.02595	0.54355
1549.00552	0.54354
1547.98510	0.54804
1546.96467	0.55205
1545.94425	0.55191
1544.92382	0.54933
1543.90340	0.54779
1542.88297	0.54655
1541.86255	0.54120
1540.84212	0.53040
1539.82170	0.51925
1538.80127	0.51754
1537.78085	0.52963
1536.76042	0.54547
1535.73999	0.55322
1534.71957	0.54964
1533.69914	0.54079
1532.67872	0.53653
1531.65829	0.54063
1530.63787	0.54785
1529.61744	0.55208
1528.59702	0.55169
1527.57659	0.54895
1526.55617	0.54707
1525.53574	0.54786
1524.51532	0.55067
1523.49489	0.55135
1522.47447	0.54564
1521.45404	0.53781
1520.43362	0.53736
1519.41319	0.54428
1518.39277	0.54875
1517.37234	0.54615
1516.35192	0.54246
1515.33149	0.54441
1514.31106	0.54992
1513.29064	0.55433
1512.27021	0.55715
1511.24979	0.56018
1510.22936	0.56264
1509.20894	0.55985
1508.18851	0.54831
1507.16809	0.53200
1506.14766	0.52269
1505.12724	0.52873
1504.10681	0.54346
1503.08639	0.55571
1502.06596	0.56150
1501.04554	0.56259
1500.02511	0.56112
1499.00469	0.55788
1497.98426	0.55357
1496.96384	0.54948
1495.94341	0.54787
1494.92298	0.55160
1493.90256	0.55908
1492.88213	0.56424
1491.86171	0.56300
1490.84128	0.55625
1489.82086	0.54885
1488.80043	0.54552
1487.78001	0.54612
1486.75958	0.54854
1485.73916	0.55231
1484.71873	0.55630
1483.69831	0.55843
1482.67788	0.55806
1481.65746	0.55653
1480.63703	0.55606
1479.61661	0.55781
1478.59618	0.56004
1477.57576	0.56031
1476.55533	0.55879
1475.53491	0.55716
1474.51448	0.55454
1473.49405	0.54796
1472.47363	0.54018
1471.45320	0.53874
1470.43278	0.54519
1469.41235	0.55373
1468.39193	0.55936
1467.37150	0.56049
1466.35108	0.55694
1465.33065	0.55064
1464.31023	0.54683
1463.28980	0.54955
1462.26938	0.55638
1461.24895	0.56251
1460.22853	0.56447
1459.20810	0.55951
1458.18768	0.54754
1457.16725	0.53479
1456.14683	0.53036
1455.12640	0.53650
1454.10598	0.54607
1453.08555	0.55237
1452.06512	0.55491
1451.04470	0.55610
1450.02427	0.55652
1449.00385	0.55476
1447.98342	0.55148
1446.96300	0.55025
1445.94257	0.55246
1444.92215	0.55560
1443.90172	0.55759
1442.88130	0.55880
1441.86087	0.56057
1440.84045	0.56383
1439.82002	0.56767
1438.79960	0.56859
1437.77917	0.56368
1436.75875	0.55597
1435.73832	0.55327
1434.71790	0.55808
1433.69747	0.56438
1432.67704	0.56749
1431.65662	0.56714
1430.63619	0.56460
1429.61577	0.56225
1428.59534	0.56271
1427.57492	0.56553
1426.55449	0.56765
1425.53407	0.56706
1424.51364	0.56476
1423.49322	0.56426
1422.47279	0.56760
1421.45237	0.57090
1420.43194	0.56841
1419.41152	0.56070
1418.39109	0.55513
1417.37067	0.55609
1416.35024	0.56053
1415.32982	0.56475
1414.30939	0.56747
1413.28897	0.56841
1412.26854	0.56805
1411.24811	0.56749
1410.22769	0.56786
1409.20726	0.56963
1408.18684	0.57225
1407.16641	0.57401
1406.14599	0.57310
1405.12556	0.56998
1404.10514	0.56843
1403.08471	0.57110
1402.06429	0.57522
1401.04386	0.57662
1400.02344	0.57413
1399.00301	0.57073
1397.98259	0.57094
1396.96216	0.57379
1395.94174	0.57356
1394.92131	0.56927
1393.90089	0.56712
1392.88046	0.57099
1391.86004	0.57678
1390.83961	0.58064
1389.81918	0.58212
1388.79876	0.58054
1387.77833	0.57606
1386.75791	0.57291
1385.73748	0.57511
1384.71706	0.57971
1383.69663	0.58228
1382.67621	0.58300
1381.65578	0.58357
1380.63536	0.58433
1379.61493	0.58480
1378.59451	0.58546
1377.57408	0.58733
1376.55366	0.58928
1375.53323	0.58810
1374.51281	0.58366
1373.49238	0.58140
1372.47196	0.58498
1371.45153	0.59062
1370.43110	0.59327
1369.41068	0.59253
1368.39025	0.59130
1367.36983	0.59265
1366.34940	0.59661
1365.32898	0.59991
1364.30855	0.59932
1363.28813	0.59474
1362.26770	0.59122
1361.24728	0.59268
1360.22685	0.59661
1359.20643	0.59988
1358.18600	0.60178
1357.16558	0.60273
1356.14515	0.60333
1355.12473	0.60346
1354.10430	0.60376
1353.08388	0.60521
1352.06345	0.60694
1351.04303	0.60790
1350.02260	0.60822
1349.00217	0.60860
1347.98175	0.60967
1346.96132	0.61117
1345.94090	0.61241
1344.92047	0.61352
1343.90005	0.61528
1342.87962	0.61782
1341.85920	0.61943
1340.83877	0.61808
1339.81835	0.61494
1338.79792	0.61461
1337.77750	0.61813
1336.75707	0.62244
1335.73665	0.62596
1334.71622	0.62916
1333.69580	0.63163
1332.67537	0.63285
1331.65495	0.63312
1330.63452	0.63260
1329.61410	0.63161
1328.59367	0.63073
1327.57324	0.63024
1326.55282	0.63000
1325.53239	0.62986
1324.51197	0.62983
1323.49154	0.62995
1322.47112	0.63017
1321.45069	0.63016
1320.43027	0.62944
1319.40984	0.62806
1318.38942	0.62719
1317.36899	0.62757
1316.34857	0.62847
1315.32814	0.62903
1314.30772	0.62874
1313.28729	0.62770
1312.26687	0.62725
1311.24644	0.62804
1310.22602	0.62903
1309.20559	0.62903
1308.18516	0.62839
1307.16474	0.62814
1306.14431	0.62832
1305.12389	0.62840
1304.10346	0.62825
1303.08304	0.62809
1302.06261	0.62793
1301.04219	0.62775
1300.02176	0.62756
1299.00134	0.62737
1297.98091	0.62719
1296.96049	0.62683
1295.94006	0.62631
1294.91964	0.62595
1293.89921	0.62579
1292.87879	0.62560
1291.85836	0.62528
1290.83794	0.62485
1289.81751	0.62438
1288.79709	0.62375
1287.77666	0.62293
1286.75623	0.62235
1285.73581	0.62226
1284.71538	0.62209
1283.69496	0.62156
1282.67453	0.62098
1281.65411	0.62049
1280.63368	0.61998
1279.61326	0.61935
1278.59283	0.61877
1277.57241	0.61828
1276.55198	0.61779
1275.53156	0.61734
1274.51113	0.61697
1273.49071	0.61645
1272.47028	0.61550
1271.44986	0.61435
1270.42943	0.61360
1269.40901	0.61326
1268.38858	0.61291
1267.36816	0.61256
1266.34773	0.61215
1265.32730	0.61160
1264.30688	0.61110
1263.28645	0.61073
1262.26603	0.61025
1261.24560	0.60940
1260.22518	0.60835
1259.20475	0.60775
1258.18433	0.60768
1257.16390	0.60744
1256.14348	0.60698
1255.12305	0.60661
1254.10263	0.60634
1253.08220	0.60611
1252.06178	0.60586
1251.04135	0.60560
1250.02093	0.60535
1249.00050	0.60509
1247.98008	0.60483
1246.95965	0.60456
1245.93922	0.60428
1244.91880	0.60392
1243.89837	0.60341
1242.87795	0.60286
1241.85752	0.60242
1240.83710	0.60203
1239.81667	0.60158
1238.79625	0.60106
1237.77582	0.60046
1236.75540	0.59985
1235.73497	0.59923
1234.71455	0.59855
1233.69412	0.59783
1232.67370	0.59712
1231.65327	0.59646
1230.63285	0.59582
1229.61242	0.59520
1228.59200	0.59463
1227.57157	0.59414
1226.55115	0.59377
1225.53072	0.59339
1224.51029	0.59287
1223.48987	0.59238
1222.46944	0.59199
1221.44902	0.59162
1220.42859	0.59125
1219.40817	0.59085
1218.38774	0.59039
1217.36732	0.58995
1216.34689	0.58959
1215.32647	0.58925
1214.30604	0.58896
1213.28562	0.58871
1212.26519	0.58836
1211.24477	0.58795
1210.22434	0.58769
1209.20392	0.58755
1208.18349	0.58740
1207.16307	0.58723
1206.14264	0.58706
1205.12222	0.58692
1204.10179	0.58680
1203.08136	0.58665
1202.06094	0.58649
1201.04051	0.58638
1200.02009	0.58640
1198.99966	0.58650
1197.97924	0.58645
1196.95881	0.58638
1195.93839	0.58638
1194.91796	0.58636
1193.89754	0.58631
1192.87711	0.58630
1191.85669	0.58633
1190.83626	0.58640
1189.81584	0.58645
1188.79541	0.58654
1187.77499	0.58672
1186.75456	0.58682
1185.73414	0.58686
1184.71371	0.58704
1183.69328	0.58731
1182.67286	0.58757
1181.65243	0.58785
1180.63201	0.58813
1179.61158	0.58837
1178.59116	0.58855
1177.57073	0.58873
1176.55031	0.58894
1175.52988	0.58919
1174.50946	0.58936
1173.48903	0.58941
1172.46861	0.58952
1171.44818	0.58969
1170.42776	0.58987
1169.40733	0.59000
1168.38691	0.59006
1167.36648	0.59010
1166.34606	0.59018
1165.32563	0.59020
1164.30521	0.59015
1163.28478	0.59012
1162.26435	0.59013
1161.24393	0.59014
1160.22350	0.59020
1159.20308	0.59028
1158.18265	0.59035
1157.16223	0.59038
1156.14180	0.59036
1155.12138	0.59034
1154.10095	0.59041
1153.08053	0.59048
1152.06010	0.59050
1151.03968	0.59055
1150.01925	0.59063
1148.99883	0.59066
1147.97840	0.59068
1146.95798	0.59074
1145.93755	0.59083
1144.91713	0.59097
1143.89670	0.59111
1142.87628	0.59120
1141.85585	0.59129
1140.83542	0.59136
1139.81500	0.59141
1138.79457	0.59149
1137.77415	0.59161
1136.75372	0.59170
1135.73330	0.59172
1134.71287	0.59163
1133.69245	0.59151
1132.67202	0.59144
1131.65160	0.59139
1130.63117	0.59130
1129.61075	0.59119
1128.59032	0.59110
1127.56990	0.59103
1126.54947	0.59099
1125.52905	0.59096
1124.50862	0.59091
1123.48820	0.59088
1122.46777	0.59090
1121.44734	0.59091
1120.42692	0.59085
1119.40649	0.59078
1118.38607	0.59071
1117.36564	0.59063
1116.34522	0.59056
1115.32479	0.59051
1114.30437	0.59044
1113.28394	0.59037
1112.26352	0.59029
1111.24309	0.59016
1110.22267	0.59002
1109.20224	0.58994
1108.18182	0.58990
1107.16139	0.58982
1106.14097	0.58969
1105.12054	0.58958
1104.10012	0.58957
1103.07969	0.58964
1102.05927	0.58977
1101.03884	0.58993
1100.01841	0.59005
1098.99799	0.59010
1097.97756	0.59008
1096.95714	0.59008
1095.93671	0.59009
1094.91629	0.59007
1093.89586	0.59003
1092.87544	0.59002
1091.85501	0.59006
1090.83459	0.59011
1089.81416	0.59017
1088.79374	0.59021
1087.77331	0.59018
1086.75289	0.59012
1085.73246	0.59010
1084.71204	0.59013
1083.69161	0.59012
1082.67119	0.58995
1081.65076	0.58977
1080.63034	0.58968
1079.60991	0.58961
1078.58948	0.58949
1077.56906	0.58939
1076.54863	0.58932
1075.52821	0.58929
1074.50778	0.58931
1073.48736	0.58933
1072.46693	0.58937
1071.44651	0.58943
1070.42608	0.58952
1069.40566	0.58968
1068.38523	0.58985
1067.36481	0.58991
1066.34438	0.58991
1065.32396	0.58994
1064.30353	0.58998
1063.28311	0.59005
1062.26268	0.59007
1061.24226	0.58998
1060.22183	0.58977
1059.20140	0.58955
1058.18098	0.58935
1057.16055	0.58916
1056.14013	0.58893
1055.11970	0.58863
1054.09928	0.58830
1053.07885	0.58801
1052.05843	0.58771
1051.03800	0.58732
1050.01758	0.58687
1048.99715	0.58646
1047.97673	0.58609
1046.95630	0.58575
1045.93588	0.58538
1044.91545	0.58490
1043.89503	0.58441
1042.87460	0.58401
1041.85418	0.58362
1040.83375	0.58317
1039.81333	0.58269
1038.79290	0.58219
1037.77247	0.58170
1036.75205	0.58128
1035.73162	0.58089
1034.71120	0.58037
1033.69077	0.57977
1032.67035	0.57923
1031.64992	0.57868
1030.62950	0.57805
1029.60907	0.57731
1028.58865	0.57653
1027.56822	0.57585
1026.54780	0.57525
1025.52737	0.57457
1024.50695	0.57381
1023.48652	0.57306
1022.46610	0.57236
1021.44567	0.57172
1020.42525	0.57100
1019.40482	0.57018
1018.38440	0.56940
1017.36397	0.56864
1016.34354	0.56787
1015.32312	0.56711
1014.30269	0.56630
1013.28227	0.56542
1012.26184	0.56461
1011.24142	0.56392
1010.22099	0.56322
1009.20057	0.56246
1008.18014	0.56166
1007.15972	0.56087
1006.13929	0.56016
1005.11887	0.55959
1004.09844	0.55902
1003.07802	0.55834
1002.05759	0.55767
1001.03717	0.55708
1000.01674	0.55652
998.99632	0.55592
997.97589	0.55527
996.95547	0.55467
995.93504	0.55413
994.91461	0.55364
993.89419	0.55314
992.87376	0.55260
991.85334	0.55198
990.83291	0.55130
989.81249	0.55071
988.79206	0.55025
987.77164	0.54977
986.75121	0.54919
985.73079	0.54859
984.71036	0.54805
983.68994	0.54755
982.66951	0.54701
981.64909	0.54641
980.62866	0.54591
979.60824	0.54550
978.58781	0.54504
977.56739	0.54451
976.54696	0.54393
975.52653	0.54325
974.50611	0.54259
973.48568	0.54208
972.46526	0.54158
971.44483	0.54101
970.42441	0.54039
969.40398	0.53977
968.38356	0.53919
967.36313	0.53869
966.34271	0.53818
965.32228	0.53765
964.30186	0.53713
963.28143	0.53659
962.26101	0.53602
961.24058	0.53546
960.22016	0.53489
959.19973	0.53427
958.17931	0.53368
957.15888	0.53317
956.13846	0.53263
955.11803	0.53203
954.09760	0.53141
953.07718	0.53084
952.05675	0.53033
951.03633	0.52983
950.01590	0.52928
948.99548	0.52872
947.97505	0.52822
946.95463	0.52775
945.93420	0.52728
944.91378	0.52675
943.89335	0.52614
942.87293	0.52554
941.85250	0.52500
940.83208	0.52452
939.81165	0.52404
938.79123	0.52353
937.77080	0.52301
936.75038	0.52252
935.72995	0.52203
934.70953	0.52147
933.68910	0.52089
932.66867	0.52041
931.64825	0.51997
930.62782	0.51949
929.60740	0.51903
928.58697	0.51858
927.56655	0.51809
926.54612	0.51764
925.52570	0.51724
924.50527	0.51680
923.48485	0.51632
922.46442	0.51587
921.44400	0.51545
920.42357	0.51509
919.40315	0.51476
918.38272	0.51439
917.36230	0.51402
916.34187	0.51360
915.32145	0.51315
914.30102	0.51278
913.28059	0.51248
912.26017	0.51214
911.23974	0.51185
910.21932	0.51163
909.19889	0.51139
908.17847	0.51113
907.15804	0.51089
906.13762	0.51062
905.11719	0.51032
904.09677	0.51005
903.07634	0.50982
902.05592	0.50952
901.03549	0.50916
900.01507	0.50890
898.99464	0.50876
897.97422	0.50866
896.95379	0.50850
895.93337	0.50823
894.91294	0.50800
893.89252	0.50784
892.87209	0.50765
891.85166	0.50741
890.83124	0.50722
889.81081	0.50705
888.79039	0.50693
887.76996	0.50683
886.74954	0.50661
885.72911	0.50634
884.70869	0.50611
883.68826	0.50590
882.66784	0.50580
881.64741	0.50575
880.62699	0.50555
879.60656	0.50526
878.58614	0.50510
877.56571	0.50507
876.54529	0.50502
875.52486	0.50486
874.50444	0.50459
873.48401	0.50436
872.46359	0.50428
871.44316	0.50430
870.42273	0.50431
869.40231	0.50427
868.38188	0.50412
867.36146	0.50390
866.34103	0.50376
865.32061	0.50361
864.30018	0.50337
863.27976	0.50317
862.25933	0.50299
861.23891	0.50282
860.21848	0.50277
859.19806	0.50273
858.17763	0.50252
857.15721	0.50225
856.13678	0.50211
855.11636	0.50207
854.09593	0.50200
853.07551	0.50183
852.05508	0.50162
851.03465	0.50144
850.01423	0.50123
848.99380	0.50096
847.97338	0.50080
846.95295	0.50074
845.93253	0.50063
844.91210	0.50048
843.89168	0.50030
842.87125	0.50005
841.85083	0.49984
840.83040	0.49973
839.80998	0.49967
838.78955	0.49959
837.76913	0.49944
836.74870	0.49924
835.72828	0.49917
834.70785	0.49929
833.68743	0.49940
832.66700	0.49939
831.64658	0.49940
830.62615	0.49952
829.60572	0.49967
828.58530	0.49982
827.56487	0.49998
826.54445	0.50019
825.52402	0.50061
824.50360	0.50119
823.48317	0.50168
822.46275	0.50219
821.44232	0.50283
820.42190	0.50345
819.40147	0.50409
818.38105	0.50487
817.36062	0.50571
816.34020	0.50649
815.31977	0.50729
814.29935	0.50819
813.27892	0.50920
812.25850	0.51026
811.23807	0.51115
810.21765	0.51195
809.19722	0.51291
808.17679	0.51395
807.15637	0.51489
806.13594	0.51579
805.11552	0.51666
804.09509	0.51745
803.07467	0.51811
802.05424	0.51847
801.03382	0.51840
800.01339	0.51796
798.99297	0.51709
797.97254	0.51576
796.95212	0.51418
795.93169	0.51236
794.91127	0.51019
793.89084	0.50788
792.87042	0.50571
791.84999	0.50376
790.82957	0.50203
789.80914	0.50042
788.78871	0.49883
787.76829	0.49749
786.74786	0.49648
785.72744	0.49563
784.70701	0.49482
783.68659	0.49412
782.66616	0.49350
781.64574	0.49295
780.62531	0.49248
779.60489	0.49197
778.58446	0.49142
777.56404	0.49101
776.54361	0.49067
775.52319	0.49030
774.50276	0.48991
773.48234	0.48948
772.46191	0.48908
771.44149	0.48883
770.42106	0.48867
769.40064	0.48847
768.38021	0.48825
767.35978	0.48809
766.33936	0.48795
765.31893	0.48789
764.29851	0.48781
763.27808	0.48757
762.25766	0.48733
761.23723	0.48722
760.21681	0.48713
759.19638	0.48708
758.17596	0.48703
757.15553	0.48690
756.13511	0.48687
755.11468	0.48696
754.09426	0.48695
753.07383	0.48688
752.05341	0.48693
751.03298	0.48713
750.01256	0.48747
748.99213	0.48784
747.97171	0.48807
746.95128	0.48832
745.93085	0.48888
744.91043	0.48956
743.89000	0.49017
742.86958	0.49074
741.84915	0.49133
740.82873	0.49184
739.80830	0.49219
738.78788	0.49223
737.76745	0.49189
736.74703	0.49132
735.72660	0.49069
734.70618	0.49006
733.68575	0.48960
732.66533	0.48936
731.64490	0.48915
730.62448	0.48883
729.60405	0.48846
728.58363	0.48811
727.56320	0.48787
726.54277	0.48774
725.52235	0.48738
724.50192	0.48528
723.48150	0.48546
722.46107	0.48784
721.44065	0.49084
720.42022	0.49213
719.39980	0.49044
718.37937	0.48746
717.35895	0.48521
716.33852	0.48420
715.31810	0.48408
714.29767	0.48437
713.27725	0.48453
712.25682	0.48446
711.23640	0.48442
710.21597	0.48447
709.19555	0.48448
708.17512	0.48448
707.15470	0.48453
706.13427	0.48458
705.11384	0.48445
704.09342	0.48404
703.07299	0.48358
702.05257	0.48335
701.03214	0.48332
700.01172	0.48336
698.99129	0.48356
697.97087	0.48391
696.95044	0.48416
695.93002	0.48442
694.90959	0.48480
693.88917	0.48506
692.86874	0.48520
691.84832	0.48564
690.82789	0.48659
689.80747	0.48774
688.78704	0.48863
687.76662	0.48913
686.74619	0.48956
685.72577	0.49024
684.70534	0.49112
683.68491	0.49218
682.66449	0.49358
681.64406	0.49538
680.62364	0.49752
679.60321	0.49986
678.58279	0.50192
677.56236	0.50311
676.54194	0.50320
675.52151	0.50349
674.50109	0.50658
673.48066	0.51513
672.46024	0.53281
671.43981	0.56651
670.41939	0.62479
669.39896	0.70335
668.37854	0.76885
667.35811	0.78266
666.33769	0.74980
665.31726	0.71669
664.29683	0.71183
663.27641	0.73238
662.25598	0.76303
661.23556	0.79148
660.21513	0.81062
659.19471	0.81642
658.17428	0.80752
657.15386	0.78607
656.13343	0.75597
655.11301	0.72253
654.09258	0.69364
653.07216	0.67697
652.05173	0.67288
651.03131	0.67188
650.01088	0.66347
648.99046	0.64604
647.97003	0.62505
646.94961	0.60584
645.92918	0.59066
644.90876	0.57948
643.88833	0.57125
642.86790	0.56502
641.84748	0.56032
640.82705	0.55670
639.80663	0.55373
638.78620	0.55145
637.76578	0.55043
636.74535	0.55096
635.72493	0.55207
634.70450	0.55192
633.68408	0.54969
632.66365	0.54635
631.64323	0.54351
630.62280	0.54252
629.60238	0.54320
628.58195	0.54346
627.56153	0.54480
626.54110	0.54712
625.52068	0.54966
624.50025	0.55102
623.47983	0.55044
622.45940	0.54811
621.43897	0.54482
620.41855	0.54158
619.39812	0.53908
618.37770	0.53702
617.35727	0.53511
616.33685	0.53373
615.31642	0.53257
614.29600	0.53131
613.27557	0.53011
612.25515	0.52884
611.23472	0.52761
610.21430	0.52695
609.19387	0.52671
608.17345	0.52618
607.15302	0.52541
606.13260	0.52485
605.11217	0.52442
604.09175	0.52388
603.07132	0.52322
602.05089	0.52281
601.03047	0.52283
600.01004	0.52272
598.98962	0.52202
597.96919	0.52116
596.94877	0.52047
595.92834	0.51992
594.90792	0.51950
593.88749	0.51963
592.86707	0.52035
591.84664	0.52010
590.82622	0.51891
589.80579	0.51853
588.78537	0.51860
587.76494	0.51825
586.74452	0.51809
585.72409	0.51845
584.70367	0.51839
583.68324	0.51791
582.66282	0.51805
581.64239	0.51835
580.62196	0.51755
579.60154	0.51605
578.58111	0.51561
577.56069	0.51650
576.54026	0.51707
575.51984	0.51621
574.49941	0.51537
573.47899	0.51529
572.45856	0.51541
571.43814	0.51544
570.41771	0.51517
569.39729	0.51460
568.37686	0.51391
567.35644	0.51356
566.33601	0.51342
565.31559	0.51331
564.29516	0.51332
563.27474	0.51320
562.25431	0.51272
561.23389	0.51182
560.21346	0.51088
559.19303	0.51042
558.17261	0.51041
557.15218	0.51040
556.13176	0.51007
555.11133	0.50951
554.09091	0.50945
553.07048	0.50992
552.05006	0.51027
551.02963	0.50997
550.00921	0.50864
548.98878	0.50763
547.96836	0.50772
546.94793	0.50770
545.92751	0.50780
544.90708	0.50830
543.88666	0.50803
542.86623	0.50732
541.84581	0.50681
540.82538	0.50577
539.80495	0.50413
538.78453	0.50338
537.76410	0.50388
536.74368	0.50366
535.72325	0.50200
534.70283	0.50071
533.68240	0.50073
532.66198	0.50107
531.64155	0.50057
530.62113	0.49938
529.60070	0.49828
528.58028	0.49758
527.55985	0.49814
526.53943	0.49845
525.51900	0.49637
524.49858	0.49430
523.47815	0.49332
522.45773	0.49409
521.43730	0.49678
520.41688	0.49838
519.39645	0.49781
518.37602	0.49781
517.35560	0.49829
516.33517	0.49750
515.31475	0.49716
514.29432	0.49593
513.27390	0.49272
512.25347	0.49108
511.23305	0.49211
510.21262	0.49320
509.19220	0.49342
508.17177	0.49482
507.15135	0.49802
506.13092	0.49983
505.11050	0.49865
504.09007	0.49508
503.06965	0.48891
502.04922	0.48314
501.02880	0.48378
500.00837	0.49320
498.98795	0.50524
